5.00000,-1.485
5.00007,-1.490
5.00013,-1.482
5.00020,-1.485
5.00027,-1.488
5.00033,-1.489
5.00040,-1.481
5.00047,-1.483
5.00053,-1.487
5.00060,-1.492
5.00067,-1.498
5.00073,-1.537
5.00080,-1.588
5.00087,-1.602
5.00093,-1.513
5.00100,-1.358
5.00107,-1.070
5.00113,-0.787
5.00120,-0.504
5.00127,-0.312
5.00133,-0.208
5.00140,-0.478
5.00147,-0.849
5.00153,-1.208
5.00160,-1.444
5.00167,-1.591
5.00173,-1.674
5.00180,-1.739
5.00187,-1.747
5.00193,-1.706
5.00200,-1.677
5.00207,-1.631
5.00213,-1.569
5.00220,-1.529
5.00227,-1.497
5.00233,-1.487
5.00240,-1.486
5.00247,-1.480
5.00253,-1.479
5.00260,-1.473
5.00267,-1.468
5.00273,-1.463
5.00280,-1.460
5.00287,-1.454
5.00293,-1.454
5.00300,-1.453
5.00307,-1.456
5.00313,-1.449
5.00320,-1.446
5.00327,-1.449
5.00333,-1.443
5.00340,-1.443
5.00347,-1.432
5.00353,-1.439
5.00360,-1.440
5.00367,-1.435
5.00373,-1.426
5.00380,-1.426
5.00387,-1.424
5.00393,-1.417
5.00400,-1.406
5.00407,-1.401
5.00413,-1.396
5.00420,-1.391
5.00427,-1.377
5.00433,-1.371
5.00440,-1.363
5.00447,-1.359
5.00453,-1.345
5.00460,-1.335
5.00467,-1.325
5.00473,-1.313
5.00480,-1.293
5.00487,-1.273
5.00493,-1.259
5.00500,-1.241
5.00507,-1.220
5.00513,-1.192
5.00520,-1.182
5.00527,-1.168
5.00533,-1.151
5.00540,-1.128
5.00547,-1.113
5.00553,-1.100
5.00560,-1.092
5.00567,-1.086
5.00573,-1.086
5.00580,-1.085
5.00587,-1.094
5.00593,-1.107
5.00600,-1.129
5.00607,-1.157
5.00613,-1.188
5.00620,-1.202
5.00627,-1.239
5.00633,-1.274
5.00640,-1.306
5.00647,-1.332
5.00653,-1.354
5.00660,-1.377
5.00667,-1.396
5.00673,-1.413
5.00680,-1.416
5.00687,-1.432
5.00693,-1.440
5.00700,-1.447
5.00707,-1.443
5.00713,-1.449
5.00720,-1.456
5.00727,-1.455
5.00733,-1.454
5.00740,-1.463
5.00747,-1.464
5.00753,-1.465
5.00760,-1.460
5.00767,-1.464
5.00773,-1.465
5.00780,-1.469
5.00787,-1.463
5.00793,-1.463
5.00800,-1.462
5.00807,-1.466
5.00813,-1.462
5.00820,-1.462
5.00827,-1.466
5.00833,-1.472
5.00840,-1.470
5.00847,-1.460
5.00853,-1.468
5.00860,-1.471
5.00867,-1.471
5.00873,-1.464
5.00880,-1.465
5.00887,-1.465
5.00893,-1.466
5.00900,-1.460
5.00907,-1.468
5.00913,-1.469
5.00920,-1.474
5.00927,-1.468
5.00933,-1.473
5.00940,-1.472
5.00947,-1.478
5.00953,-1.473
5.00960,-1.471
5.00967,-1.475
5.00973,-1.480
5.00980,-1.481
5.00987,-1.476
5.00993,-1.478
5.01000,-1.477
5.01007,-1.473
5.01013,-1.462
5.01020,-1.471
5.01027,-1.477
5.01033,-1.481
5.01040,-1.475
5.01047,-1.479
5.01053,-1.473
5.01060,-1.476
5.01067,-1.473
5.01073,-1.480
5.01080,-1.478
5.01087,-1.481
5.01093,-1.476
5.01100,-1.481
5.01107,-1.479
5.01113,-1.482
5.01120,-1.481
5.01127,-1.482
5.01133,-1.481
5.01140,-1.481
5.01147,-1.479
5.01153,-1.478
5.01160,-1.486
5.01167,-1.486
5.01173,-1.485
5.01180,-1.478
5.01187,-1.484
5.01193,-1.485
5.01200,-1.484
5.01207,-1.479
5.01213,-1.482
5.01220,-1.484
5.01227,-1.487
5.01233,-1.483
5.01240,-1.491
5.01247,-1.495
5.01253,-1.485
5.01260,-1.481
5.01267,-1.485
5.01273,-1.486
5.01280,-1.492
5.01287,-1.491
5.01293,-1.492
5.01300,-1.493
5.01307,-1.494
5.01313,-1.487
5.01320,-1.489
5.01327,-1.490
5.01333,-1.489
5.01340,-1.490
5.01347,-1.480
5.01353,-1.492
5.01360,-1.493
5.01367,-1.492
5.01373,-1.490
5.01380,-1.498
5.01387,-1.499
5.01393,-1.494
5.01400,-1.486
5.01407,-1.496
5.01413,-1.495
5.01420,-1.498
5.01427,-1.493
5.01433,-1.503
5.01440,-1.507
5.01447,-1.512
5.01453,-1.498
5.01460,-1.493
5.01467,-1.496
5.01473,-1.500
5.01480,-1.501
5.01487,-1.495
5.01493,-1.486
5.01500,-1.469
5.01507,-1.471
5.01513,-1.464
5.01520,-1.476
5.01527,-1.477
5.01533,-1.474
5.01540,-1.464
5.01547,-1.470
5.01553,-1.489
5.01560,-1.490
5.01567,-1.490
5.01573,-1.494
5.01580,-1.491
5.01587,-1.496
5.01593,-1.492
5.01600,-1.493
5.01607,-1.492
5.01613,-1.495
5.01620,-1.493
5.01627,-1.499
5.01633,-1.507
5.01640,-1.553
5.01647,-1.601
5.01653,-1.597
5.01660,-1.506
5.01667,-1.340
5.01673,-1.055
5.01680,-0.759
5.01687,-0.496
5.01693,-0.338
5.01700,-0.283
5.01707,-0.594
5.01713,-0.957
5.01720,-1.285
5.01727,-1.460
5.01733,-1.592
5.01740,-1.696
5.01747,-1.754
5.01753,-1.760
5.01760,-1.714
5.01767,-1.692
5.01773,-1.672
5.01780,-1.606
5.01787,-1.546
5.01793,-1.515
5.01800,-1.507
5.01807,-1.508
5.01813,-1.496
5.01820,-1.490
5.01827,-1.489
5.01833,-1.487
5.01840,-1.481
5.01847,-1.468
5.01853,-1.471
5.01860,-1.471
5.01867,-1.468
5.01873,-1.459
5.01880,-1.466
5.01887,-1.467
5.01893,-1.468
5.01900,-1.462
5.01907,-1.466
5.01913,-1.464
5.01920,-1.461
5.01927,-1.451
5.01933,-1.449
5.01940,-1.445
5.01947,-1.446
5.01953,-1.435
5.01960,-1.432
5.01967,-1.426
5.01973,-1.426
5.01980,-1.416
5.01987,-1.406
5.01993,-1.405
5.02000,-1.396
5.02007,-1.385
5.02013,-1.365
5.02020,-1.365
5.02027,-1.357
5.02033,-1.345
5.02040,-1.325
5.02047,-1.310
5.02053,-1.294
5.02060,-1.278
5.02067,-1.260
5.02073,-1.243
5.02080,-1.229
5.02087,-1.213
5.02093,-1.187
5.02100,-1.174
5.02107,-1.157
5.02113,-1.146
5.02120,-1.132
5.02127,-1.123
5.02133,-1.115
5.02140,-1.117
5.02147,-1.114
5.02153,-1.121
5.02160,-1.137
5.02167,-1.156
5.02173,-1.179
5.02180,-1.196
5.02187,-1.229
5.02193,-1.265
5.02200,-1.299
5.02207,-1.321
5.02213,-1.353
5.02220,-1.382
5.02227,-1.405
5.02233,-1.417
5.02240,-1.437
5.02247,-1.447
5.02253,-1.462
5.02260,-1.468
5.02267,-1.477
5.02273,-1.485
5.02280,-1.493
5.02287,-1.490
5.02293,-1.494
5.02300,-1.495
5.02307,-1.498
5.02313,-1.493
5.02320,-1.495
5.02327,-1.496
5.02333,-1.501
5.02340,-1.502
5.02347,-1.495
5.02353,-1.500
5.02360,-1.498
5.02367,-1.496
5.02373,-1.491
5.02380,-1.495
5.02387,-1.502
5.02393,-1.504
5.02400,-1.495
5.02407,-1.507
5.02413,-1.511
5.02420,-1.512
5.02427,-1.511
5.02433,-1.512
5.02440,-1.510
5.02447,-1.504
5.02453,-1.499
5.02460,-1.506
5.02467,-1.503
5.02473,-1.506
5.02480,-1.504
5.02487,-1.508
5.02493,-1.507
5.02500,-1.510
5.02507,-1.512
5.02513,-1.504
5.02520,-1.515
5.02527,-1.513
5.02533,-1.514
5.02540,-1.509
5.02547,-1.514
5.02553,-1.517
5.02560,-1.514
5.02567,-1.511
5.02573,-1.516
5.02580,-1.515
5.02587,-1.517
5.02593,-1.513
5.02600,-1.519
5.02607,-1.522
5.02613,-1.526
5.02620,-1.520
5.02627,-1.523
5.02633,-1.523
5.02640,-1.523
5.02647,-1.520
5.02653,-1.518
5.02660,-1.520
5.02667,-1.525
5.02673,-1.525
5.02680,-1.510
5.02687,-1.512
5.02693,-1.518
5.02700,-1.522
5.02707,-1.515
5.02713,-1.519
5.02720,-1.520
5.02727,-1.521
5.02733,-1.512
5.02740,-1.520
5.02747,-1.522
5.02753,-1.524
5.02760,-1.523
5.02767,-1.522
5.02773,-1.518
5.02780,-1.524
5.02787,-1.526
5.02793,-1.533
5.02800,-1.536
5.02807,-1.540
5.02813,-1.527
5.02820,-1.522
5.02827,-1.515
5.02833,-1.525
5.02840,-1.528
5.02847,-1.525
5.02853,-1.523
5.02860,-1.503
5.02867,-1.498
5.02873,-1.490
5.02880,-1.498
5.02887,-1.504
5.02893,-1.500
5.02900,-1.496
5.02907,-1.500
5.02913,-1.512
5.02920,-1.525
5.02927,-1.514
5.02933,-1.522
5.02940,-1.522
5.02947,-1.521
5.02953,-1.516
5.02960,-1.515
5.02967,-1.518
5.02973,-1.522
5.02980,-1.521
5.02987,-1.523
5.02993,-1.525
5.03000,-1.541
5.03007,-1.591
5.03013,-1.617
5.03020,-1.596
5.03027,-1.484
5.03033,-1.261
5.03040,-0.995
5.03047,-0.720
5.03053,-0.502
5.03060,-0.395
5.03067,-0.439
5.03073,-0.767
5.03080,-1.126
5.03087,-1.372
5.03093,-1.498
5.03100,-1.616
5.03107,-1.709
5.03113,-1.760
5.03120,-1.756
5.03127,-1.722
5.03133,-1.705
5.03140,-1.690
5.03147,-1.613
5.03153,-1.558
5.03160,-1.528
5.03167,-1.523
5.03173,-1.520
5.03180,-1.507
5.03187,-1.507
5.03193,-1.496
5.03200,-1.497
5.03207,-1.489
5.03213,-1.490
5.03220,-1.494
5.03227,-1.491
5.03233,-1.485
5.03240,-1.486
5.03247,-1.486
5.03253,-1.486
5.03260,-1.476
5.03267,-1.479
5.03273,-1.475
5.03280,-1.473
5.03287,-1.462
5.03293,-1.462
5.03300,-1.463
5.03307,-1.462
5.03313,-1.451
5.03320,-1.444
5.03327,-1.442
5.03333,-1.437
5.03340,-1.432
5.03347,-1.417
5.03353,-1.415
5.03360,-1.407
5.03367,-1.400
5.03373,-1.383
5.03380,-1.379
5.03387,-1.372
5.03393,-1.362
5.03400,-1.340
5.03407,-1.330
5.03413,-1.317
5.03420,-1.300
5.03427,-1.279
5.03433,-1.264
5.03440,-1.248
5.03447,-1.231
5.03453,-1.208
5.03460,-1.190
5.03467,-1.175
5.03473,-1.163
5.03480,-1.147
5.03487,-1.136
5.03493,-1.129
5.03500,-1.128
5.03507,-1.128
5.03513,-1.130
5.03520,-1.150
5.03527,-1.172
5.03533,-1.198
5.03540,-1.219
5.03547,-1.252
5.03553,-1.291
5.03560,-1.323
5.03567,-1.347
5.03573,-1.373
5.03580,-1.394
5.03587,-1.419
5.03593,-1.434
5.03600,-1.454
5.03607,-1.465
5.03613,-1.478
5.03620,-1.481
5.03627,-1.486
5.03633,-1.493
5.03640,-1.501
5.03647,-1.498
5.03653,-1.497
5.03660,-1.502
5.03667,-1.503
5.03673,-1.505
5.03680,-1.501
5.03687,-1.509
5.03693,-1.509
5.03700,-1.512
5.03707,-1.505
5.03713,-1.507
5.03720,-1.511
5.03727,-1.515
5.03733,-1.506
5.03740,-1.509
5.03747,-1.509
5.03753,-1.511
5.03760,-1.503
5.03767,-1.509
5.03773,-1.503
5.03780,-1.508
5.03787,-1.503
5.03793,-1.501
5.03800,-1.500
5.03807,-1.503
5.03813,-1.502
5.03820,-1.500
5.03827,-1.501
5.03833,-1.506
5.03840,-1.504
5.03847,-1.497
5.03853,-1.506
5.03860,-1.506
5.03867,-1.509
5.03873,-1.500
5.03880,-1.503
5.03887,-1.507
5.03893,-1.510
5.03900,-1.504
5.03907,-1.510
5.03913,-1.508
5.03920,-1.509
5.03927,-1.505
5.03933,-1.510
5.03940,-1.514
5.03947,-1.517
5.03953,-1.509
5.03960,-1.512
5.03967,-1.513
5.03973,-1.516
5.03980,-1.511
5.03987,-1.508
5.03993,-1.510
5.04000,-1.510
5.04007,-1.507
5.04013,-1.503
5.04020,-1.509
5.04027,-1.506
5.04033,-1.510
5.04040,-1.504
5.04047,-1.507
5.04053,-1.509
5.04060,-1.512
5.04067,-1.505
5.04073,-1.510
5.04080,-1.511
5.04087,-1.512
5.04093,-1.505
5.04100,-1.509
5.04107,-1.507
5.04113,-1.512
5.04120,-1.509
5.04127,-1.512
5.04133,-1.508
5.04140,-1.511
5.04147,-1.509
5.04153,-1.514
5.04160,-1.514
5.04167,-1.517
5.04173,-1.510
5.04180,-1.499
5.04187,-1.500
5.04193,-1.501
5.04200,-1.509
5.04207,-1.503
5.04213,-1.492
5.04220,-1.482
5.04227,-1.485
5.04233,-1.483
5.04240,-1.489
5.04247,-1.490
5.04253,-1.487
5.04260,-1.479
5.04267,-1.482
5.04273,-1.481
5.04280,-1.504
5.04287,-1.499
5.04293,-1.505
5.04300,-1.503
5.04307,-1.507
5.04313,-1.501
5.04320,-1.504
5.04327,-1.501
5.04333,-1.498
5.04340,-1.496
5.04347,-1.493
5.04353,-1.501
5.04360,-1.526
5.04367,-1.577
5.04373,-1.603
5.04380,-1.572
5.04387,-1.449
5.04393,-1.224
5.04400,-0.950
5.04407,-0.680
5.04413,-0.433
5.04420,-0.312
5.04427,-0.356
5.04433,-0.699
5.04440,-1.066
5.04447,-1.354
5.04453,-1.511
5.04460,-1.652
5.04467,-1.713
5.04473,-1.751
5.04480,-1.723
5.04487,-1.697
5.04493,-1.681
5.04500,-1.633
5.04507,-1.560
5.04513,-1.515
5.04520,-1.500
5.04527,-1.493
5.04533,-1.487
5.04540,-1.476
5.04547,-1.479
5.04553,-1.481
5.04560,-1.479
5.04567,-1.467
5.04573,-1.468
5.04580,-1.468
5.04587,-1.469
5.04593,-1.458
5.04600,-1.459
5.04607,-1.454
5.04613,-1.458
5.04620,-1.453
5.04627,-1.453
5.04633,-1.449
5.04640,-1.449
5.04647,-1.441
5.04653,-1.439
5.04660,-1.434
5.04667,-1.432
5.04673,-1.424
5.04680,-1.417
5.04687,-1.415
5.04693,-1.409
5.04700,-1.405
5.04707,-1.395
5.04713,-1.390
5.04720,-1.387
5.04727,-1.381
5.04733,-1.365
5.04740,-1.359
5.04747,-1.346
5.04753,-1.333
5.04760,-1.314
5.04767,-1.304
5.04773,-1.286
5.04780,-1.272
5.04787,-1.246
5.04793,-1.230
5.04800,-1.213
5.04807,-1.194
5.04813,-1.175
5.04820,-1.155
5.04827,-1.139
5.04833,-1.128
5.04840,-1.113
5.04847,-1.090
5.04853,-1.092
5.04860,-1.086
5.04867,-1.094
5.04873,-1.096
5.04880,-1.115
5.04887,-1.137
5.04893,-1.166
5.04900,-1.191
5.04907,-1.225
5.04913,-1.256
5.04920,-1.290
5.04927,-1.313
5.04933,-1.341
5.04940,-1.368
5.04947,-1.395
5.04953,-1.408
5.04960,-1.425
5.04967,-1.439
5.04973,-1.452
5.04980,-1.454
5.04987,-1.458
5.04993,-1.467
5.05000,-1.476
5.05007,-1.476
5.05013,-1.469
5.05020,-1.475
5.05027,-1.477
5.05033,-1.482
5.05040,-1.471
5.05047,-1.478
5.05053,-1.481
5.05060,-1.479
5.05067,-1.474
5.05073,-1.478
5.05080,-1.481
5.05087,-1.483
5.05093,-1.479
5.05100,-1.483
5.05107,-1.482
5.05113,-1.482
5.05120,-1.475
5.05127,-1.480
5.05133,-1.479
5.05140,-1.484
5.05147,-1.480
5.05153,-1.479
5.05160,-1.478
5.05167,-1.479
5.05173,-1.476
5.05180,-1.473
5.05187,-1.479
5.05193,-1.480
5.05200,-1.484
5.05207,-1.472
5.05213,-1.475
5.05220,-1.475
5.05227,-1.478
5.05233,-1.476
5.05240,-1.482
5.05247,-1.487
5.05253,-1.488
5.05260,-1.479
5.05267,-1.482
5.05273,-1.482
5.05280,-1.489
5.05287,-1.484
5.05293,-1.484
5.05300,-1.484
5.05307,-1.490
5.05313,-1.486
5.05320,-1.484
5.05327,-1.486
5.05333,-1.487
5.05340,-1.482
5.05347,-1.476
5.05353,-1.482
5.05360,-1.485
5.05367,-1.487
5.05373,-1.479
5.05380,-1.479
5.05387,-1.483
5.05393,-1.484
5.05400,-1.479
5.05407,-1.482
5.05413,-1.482
5.05420,-1.489
5.05427,-1.486
5.05433,-1.489
5.05440,-1.489
5.05447,-1.487
5.05453,-1.480
5.05460,-1.484
5.05467,-1.484
5.05473,-1.488
5.05480,-1.486
5.05487,-1.484
5.05493,-1.487
5.05500,-1.488
5.05507,-1.485
5.05513,-1.472
5.05520,-1.476
5.05527,-1.476
5.05533,-1.482
5.05540,-1.475
5.05547,-1.481
5.05553,-1.484
5.05560,-1.482
5.05567,-1.481
5.05573,-1.484
5.05580,-1.484
5.05587,-1.487
5.05593,-1.481
5.05600,-1.482
5.05607,-1.481
5.05613,-1.486
5.05620,-1.480
5.05627,-1.479
5.05633,-1.478
5.05640,-1.481
5.05647,-1.478
5.05653,-1.483
5.05660,-1.484
5.05667,-1.488
5.05673,-1.482
5.05680,-1.478
5.05687,-1.482
5.05693,-1.480
5.05700,-1.489
5.05707,-1.479
5.05713,-1.484
5.05720,-1.486
5.05727,-1.481
5.05733,-1.473
5.05740,-1.482
5.05747,-1.489
5.05753,-1.492
5.05760,-1.475
5.05767,-1.457
5.05773,-1.459
5.05780,-1.465
5.05787,-1.459
5.05793,-1.462
5.05800,-1.456
5.05807,-1.454
5.05813,-1.446
5.05820,-1.462
5.05827,-1.471
5.05833,-1.473
5.05840,-1.471
5.05847,-1.464
5.05853,-1.468
5.05860,-1.465
5.05867,-1.473
5.05873,-1.466
5.05880,-1.470
5.05887,-1.475
5.05893,-1.474
5.05900,-1.473
5.05907,-1.510
5.05913,-1.567
5.05920,-1.602
5.05927,-1.539
5.05933,-1.404
5.05940,-1.128
5.05947,-0.851
5.05953,-0.554
5.05960,-0.323
5.05967,-0.187
5.05973,-0.344
5.05980,-0.728
5.05987,-1.106
5.05993,-1.385
5.06000,-1.550
5.06007,-1.656
5.06013,-1.730
5.06020,-1.747
5.06027,-1.706
5.06033,-1.679
5.06040,-1.636
5.06047,-1.573
5.06053,-1.520
5.06060,-1.482
5.06067,-1.471
5.06073,-1.471
5.06080,-1.470
5.06087,-1.470
5.06093,-1.459
5.06100,-1.459
5.06107,-1.456
5.06113,-1.457
5.06120,-1.450
5.06127,-1.453
5.06133,-1.449
5.06140,-1.449
5.06147,-1.443
5.06153,-1.447
5.06160,-1.444
5.06167,-1.445
5.06173,-1.438
5.06180,-1.428
5.06187,-1.431
5.06193,-1.428
5.06200,-1.429
5.06207,-1.420
5.06213,-1.423
5.06220,-1.419
5.06227,-1.413
5.06233,-1.398
5.06240,-1.392
5.06247,-1.393
5.06253,-1.393
5.06260,-1.381
5.06267,-1.379
5.06273,-1.366
5.06280,-1.363
5.06287,-1.348
5.06293,-1.340
5.06300,-1.329
5.06307,-1.316
5.06313,-1.294
5.06320,-1.275
5.06327,-1.263
5.06333,-1.251
5.06340,-1.226
5.06347,-1.201
5.06353,-1.191
5.06360,-1.167
5.06367,-1.152
5.06373,-1.128
5.06380,-1.117
5.06387,-1.105
5.06393,-1.096
5.06400,-1.085
5.06407,-1.081
5.06413,-1.080
5.06420,-1.092
5.06427,-1.101
5.06433,-1.126
5.06440,-1.150
5.06447,-1.183
5.06453,-1.208
5.06460,-1.241
5.06467,-1.273
5.06473,-1.305
5.06480,-1.329
5.06487,-1.352
5.06493,-1.377
5.06500,-1.398
5.06507,-1.411
5.06513,-1.419
5.06520,-1.436
5.06527,-1.442
5.06533,-1.456
5.06540,-1.458
5.06547,-1.470
5.06553,-1.473
5.06560,-1.472
5.06567,-1.467
5.06573,-1.475
5.06580,-1.474
5.06587,-1.479
5.06593,-1.475
5.06600,-1.481
5.06607,-1.480
5.06613,-1.486
5.06620,-1.479
5.06627,-1.481
5.06633,-1.483
5.06640,-1.487
5.06647,-1.483
5.06653,-1.479
5.06660,-1.487
5.06667,-1.485
5.06673,-1.486
5.06680,-1.482
5.06687,-1.486
5.06693,-1.486
5.06700,-1.486
5.06707,-1.479
5.06713,-1.486
5.06720,-1.489
5.06727,-1.491
5.06733,-1.487
5.06740,-1.489
5.06747,-1.487
5.06753,-1.491
5.06760,-1.483
5.06767,-1.486
5.06773,-1.485
5.06780,-1.489
5.06787,-1.484
5.06793,-1.489
5.06800,-1.495
5.06807,-1.499
5.06813,-1.489
5.06820,-1.490
5.06827,-1.489
5.06833,-1.495
5.06840,-1.495
5.06847,-1.489
5.06853,-1.496
5.06860,-1.498
5.06867,-1.499
5.06873,-1.493
5.06880,-1.498
5.06887,-1.497
5.06893,-1.495
5.06900,-1.487
5.06907,-1.492
5.06913,-1.494
5.06920,-1.501
5.06927,-1.493
5.06933,-1.501
5.06940,-1.500
5.06947,-1.503
5.06953,-1.497
5.06960,-1.498
5.06967,-1.497
5.06973,-1.498
5.06980,-1.493
5.06987,-1.495
5.06993,-1.493
5.07000,-1.498
5.07007,-1.495
5.07013,-1.492
5.07020,-1.490
5.07027,-1.492
5.07033,-1.499
5.07040,-1.493
5.07047,-1.496
5.07053,-1.497
5.07060,-1.500
5.07067,-1.493
5.07073,-1.500
5.07080,-1.497
5.07087,-1.500
5.07093,-1.492
5.07100,-1.496
5.07107,-1.491
5.07113,-1.497
5.07120,-1.494
5.07127,-1.501
5.07133,-1.496
5.07140,-1.500
5.07147,-1.500
5.07153,-1.499
5.07160,-1.502
5.07167,-1.503
5.07173,-1.501
5.07180,-1.493
5.07187,-1.497
5.07193,-1.496
5.07200,-1.501
5.07207,-1.495
5.07213,-1.501
5.07220,-1.506
5.07227,-1.509
5.07233,-1.511
5.07240,-1.504
5.07247,-1.499
5.07253,-1.499
5.07260,-1.496
5.07267,-1.504
5.07273,-1.504
5.07280,-1.495
5.07287,-1.465
5.07293,-1.467
5.07300,-1.471
5.07307,-1.479
5.07313,-1.472
5.07320,-1.467
5.07327,-1.468
5.07333,-1.478
5.07340,-1.480
5.07347,-1.485
5.07353,-1.495
5.07360,-1.496
5.07367,-1.492
5.07373,-1.486
5.07380,-1.491
5.07387,-1.494
5.07393,-1.496
5.07400,-1.487
5.07407,-1.493
5.07413,-1.501
5.07420,-1.509
5.07427,-1.527
5.07433,-1.583
5.07440,-1.601
5.07447,-1.559
5.07453,-1.409
5.07460,-1.155
5.07467,-0.890
5.07473,-0.630
5.07480,-0.425
5.07487,-0.335
5.07493,-0.496
5.07500,-0.843
5.07507,-1.196
5.07513,-1.399
5.07520,-1.528
5.07527,-1.644
5.07533,-1.705
5.07540,-1.737
5.07547,-1.725
5.07553,-1.695
5.07560,-1.677
5.07567,-1.642
5.07573,-1.576
5.07580,-1.535
5.07587,-1.501
5.07593,-1.486
5.07600,-1.490
5.07607,-1.489
5.07613,-1.488
5.07620,-1.480
5.07627,-1.475
5.07633,-1.471
5.07640,-1.469
5.07647,-1.463
5.07653,-1.463
5.07660,-1.464
5.07667,-1.464
5.07673,-1.460
5.07680,-1.454
5.07687,-1.455
5.07693,-1.451
5.07700,-1.450
5.07707,-1.437
5.07713,-1.447
5.07720,-1.442
5.07727,-1.439
5.07733,-1.429
5.07740,-1.428
5.07747,-1.421
5.07753,-1.417
5.07760,-1.406
5.07767,-1.407
5.07773,-1.403
5.07780,-1.396
5.07787,-1.384
5.07793,-1.377
5.07800,-1.367
5.07807,-1.362
5.07813,-1.347
5.07820,-1.338
5.07827,-1.326
5.07833,-1.315
5.07840,-1.290
5.07847,-1.269
5.07853,-1.254
5.07860,-1.235
5.07867,-1.219
5.07873,-1.198
5.07880,-1.185
5.07887,-1.169
5.07893,-1.157
5.07900,-1.136
5.07907,-1.128
5.07913,-1.116
5.07920,-1.106
5.07927,-1.100
5.07933,-1.104
5.07940,-1.109
5.07947,-1.126
5.07953,-1.140
5.07960,-1.169
5.07967,-1.191
5.07973,-1.222
5.07980,-1.247
5.07987,-1.282
5.07993,-1.318
5.08000,-1.346
5.08007,-1.362
5.08013,-1.382
5.08020,-1.404
5.08027,-1.421
5.08033,-1.434
5.08040,-1.434
5.08047,-1.446
5.08053,-1.460
5.08060,-1.466
5.08067,-1.468
5.08073,-1.470
5.08080,-1.475
5.08087,-1.475
5.08093,-1.474
5.08100,-1.478
5.08107,-1.478
5.08113,-1.481
5.08120,-1.474
5.08127,-1.484
5.08133,-1.489
5.08140,-1.487
5.08147,-1.482
5.08153,-1.478
5.08160,-1.482
5.08167,-1.486
5.08173,-1.482
5.08180,-1.478
5.08187,-1.482
5.08193,-1.482
5.08200,-1.486
5.08207,-1.476
5.08213,-1.479
5.08220,-1.483
5.08227,-1.485
5.08233,-1.481
5.08240,-1.484
5.08247,-1.482
5.08253,-1.486
5.08260,-1.481
5.08267,-1.486
5.08273,-1.486
5.08280,-1.489
5.08287,-1.485
5.08293,-1.484
5.08300,-1.484
5.08307,-1.489
5.08313,-1.486
5.08320,-1.490
5.08327,-1.496
5.08333,-1.498
5.08340,-1.494
5.08347,-1.487
5.08353,-1.490
5.08360,-1.489
5.08367,-1.493
5.08373,-1.486
5.08380,-1.489
5.08387,-1.491
5.08393,-1.489
5.08400,-1.482
5.08407,-1.486
5.08413,-1.492
5.08420,-1.498
5.08427,-1.490
5.08433,-1.496
5.08440,-1.496
5.08447,-1.496
5.08453,-1.489
5.08460,-1.493
5.08467,-1.493
5.08473,-1.493
5.08480,-1.492
5.08487,-1.490
5.08493,-1.489
5.08500,-1.492
5.08507,-1.488
5.08513,-1.485
5.08520,-1.489
5.08527,-1.487
5.08533,-1.489
5.08540,-1.482
5.08547,-1.490
5.08553,-1.490
5.08560,-1.488
5.08567,-1.481
5.08573,-1.487
5.08580,-1.489
5.08587,-1.492
5.08593,-1.486
5.08600,-1.490
5.08607,-1.489
5.08613,-1.495
5.08620,-1.493
5.08627,-1.495
5.08633,-1.494
5.08640,-1.493
5.08647,-1.482
5.08653,-1.487
5.08660,-1.487
5.08667,-1.497
5.08673,-1.484
5.08680,-1.467
5.08687,-1.461
5.08693,-1.464
5.08700,-1.470
5.08707,-1.462
5.08713,-1.464
5.08720,-1.454
5.08727,-1.456
5.08733,-1.452
5.08740,-1.472
5.08747,-1.476
5.08753,-1.479
5.08760,-1.476
5.08767,-1.481
5.08773,-1.478
5.08780,-1.484
5.08787,-1.473
5.08793,-1.479
5.08800,-1.477
5.08807,-1.480
5.08813,-1.482
5.08820,-1.490
5.08827,-1.517
5.08833,-1.572
5.08840,-1.589
5.08847,-1.530
5.08853,-1.395
5.08860,-1.137
5.08867,-0.877
5.08873,-0.597
5.08880,-0.387
5.08887,-0.282
5.08893,-0.413
5.08900,-0.764
5.08907,-1.129
5.08913,-1.377
5.08920,-1.518
5.08927,-1.637
5.08933,-1.704
5.08940,-1.731
5.08947,-1.704
5.08953,-1.673
5.08960,-1.664
5.08967,-1.605
5.08973,-1.547
5.08980,-1.504
5.08987,-1.487
5.08993,-1.479
5.09000,-1.473
5.09007,-1.462
5.09013,-1.451
5.09020,-1.453
5.09027,-1.453
5.09033,-1.450
5.09040,-1.438
5.09047,-1.449
5.09053,-1.446
5.09060,-1.445
5.09067,-1.434
5.09073,-1.434
5.09080,-1.434
5.09087,-1.430
5.09093,-1.419
5.09100,-1.428
5.09107,-1.424
5.09113,-1.427
5.09120,-1.420
5.09127,-1.420
5.09133,-1.409
5.09140,-1.407
5.09147,-1.399
5.09153,-1.392
5.09160,-1.389
5.09167,-1.385
5.09173,-1.376
5.09180,-1.370
5.09187,-1.366
5.09193,-1.355
5.09200,-1.345
5.09207,-1.328
5.09213,-1.324
5.09220,-1.312
5.09227,-1.296
5.09233,-1.271
5.09240,-1.262
5.09247,-1.249
5.09253,-1.228
5.09260,-1.207
5.09267,-1.195
5.09273,-1.172
5.09280,-1.153
5.09287,-1.131
5.09293,-1.119
5.09300,-1.107
5.09307,-1.102
5.09313,-1.081
5.09320,-1.074
5.09327,-1.071
5.09333,-1.077
5.09340,-1.082
5.09347,-1.094
5.09353,-1.122
5.09360,-1.144
5.09367,-1.172
5.09373,-1.199
5.09380,-1.238
5.09387,-1.273
5.09393,-1.303
5.09400,-1.319
5.09407,-1.346
5.09413,-1.378
5.09420,-1.398
5.09427,-1.406
5.09433,-1.420
5.09440,-1.432
5.09447,-1.447
5.09453,-1.443
5.09460,-1.447
5.09467,-1.451
5.09473,-1.456
5.09480,-1.451
5.09487,-1.455
5.09493,-1.460
5.09500,-1.466
5.09507,-1.464
5.09513,-1.461
5.09520,-1.465
5.09527,-1.464
5.09533,-1.465
5.09540,-1.458
5.09547,-1.462
5.09553,-1.464
5.09560,-1.464
5.09567,-1.457
5.09573,-1.464
5.09580,-1.468
5.09587,-1.470
5.09593,-1.459
5.09600,-1.465
5.09607,-1.461
5.09613,-1.467
5.09620,-1.463
5.09627,-1.467
5.09633,-1.468
5.09640,-1.470
5.09647,-1.466
5.09653,-1.464
5.09660,-1.464
5.09667,-1.464
5.09673,-1.464
5.09680,-1.461
5.09687,-1.464
5.09693,-1.462
5.09700,-1.462
5.09707,-1.454
5.09713,-1.465
5.09720,-1.468
5.09727,-1.471
5.09733,-1.463
5.09740,-1.465
5.09747,-1.464
5.09753,-1.468
5.09760,-1.462
5.09767,-1.471
5.09773,-1.471
5.09780,-1.475
5.09787,-1.471
5.09793,-1.471
5.09800,-1.470
5.09807,-1.476
5.09813,-1.471
5.09820,-1.473
5.09827,-1.473
5.09833,-1.476
5.09840,-1.472
5.09847,-1.473
5.09853,-1.471
5.09860,-1.475
5.09867,-1.471
5.09873,-1.460
5.09880,-1.470
5.09887,-1.471
5.09893,-1.473
5.09900,-1.464
5.09907,-1.471
5.09913,-1.473
5.09920,-1.475
5.09927,-1.467
5.09933,-1.479
5.09940,-1.475
5.09947,-1.476
5.09953,-1.469
5.09960,-1.471
5.09967,-1.471
5.09973,-1.474
5.09980,-1.470
5.09987,-1.472
5.09993,-1.475
5.10000,-1.475
5.10007,-1.468
5.10013,-1.470
5.10020,-1.471
5.10027,-1.470
5.10033,-1.471
5.10040,-1.460
5.10047,-1.468
5.10053,-1.470
5.10060,-1.472
5.10067,-1.463
5.10073,-1.469
5.10080,-1.473
5.10087,-1.474
5.10093,-1.467
5.10100,-1.468
5.10107,-1.468
5.10113,-1.473
5.10120,-1.469
5.10127,-1.470
5.10133,-1.468
5.10140,-1.465
5.10147,-1.462
5.10153,-1.467
5.10160,-1.477
5.10167,-1.481
5.10173,-1.480
5.10180,-1.476
5.10187,-1.471
5.10193,-1.476
5.10200,-1.476
5.10207,-1.476
5.10213,-1.474
5.10220,-1.454
5.10227,-1.448
5.10233,-1.446
5.10240,-1.453
5.10247,-1.455
5.10253,-1.453
5.10260,-1.439
5.10267,-1.445
5.10273,-1.442
5.10280,-1.467
5.10287,-1.459
5.10293,-1.462
5.10300,-1.464
5.10307,-1.472
5.10313,-1.466
5.10320,-1.467
5.10327,-1.467
5.10333,-1.471
5.10340,-1.472
5.10347,-1.470
5.10353,-1.474
5.10360,-1.486
5.10367,-1.531
5.10373,-1.567
5.10380,-1.571
5.10387,-1.479
5.10393,-1.310
5.10400,-1.010
5.10407,-0.729
5.10413,-0.440
5.10420,-0.267
5.10427,-0.179
5.10433,-0.504
5.10440,-0.873
5.10447,-1.235
5.10453,-1.439
5.10460,-1.594
5.10467,-1.666
5.10473,-1.732
5.10480,-1.720
5.10487,-1.681
5.10493,-1.652
5.10500,-1.611
5.10507,-1.543
5.10513,-1.498
5.10520,-1.476
5.10527,-1.471
5.10533,-1.463
5.10540,-1.451
5.10547,-1.453
5.10553,-1.450
5.10560,-1.449
5.10567,-1.440
5.10573,-1.441
5.10580,-1.441
5.10587,-1.442
5.10593,-1.437
5.10600,-1.435
5.10607,-1.431
5.10613,-1.434
5.10620,-1.426
5.10627,-1.432
5.10633,-1.426
5.10640,-1.428
5.10647,-1.424
5.10653,-1.421
5.10660,-1.419
5.10667,-1.416
5.10673,-1.408
5.10680,-1.401
5.10687,-1.400
5.10693,-1.398
5.10700,-1.390
5.10707,-1.377
5.10713,-1.377
5.10720,-1.372
5.10727,-1.365
5.10733,-1.349
5.10740,-1.341
5.10747,-1.334
5.10753,-1.321
5.10760,-1.302
5.10767,-1.293
5.10773,-1.280
5.10780,-1.269
5.10787,-1.241
5.10793,-1.226
5.10800,-1.207
5.10807,-1.196
5.10813,-1.170
5.10820,-1.154
5.10827,-1.135
5.10833,-1.122
5.10840,-1.101
5.10847,-1.085
5.10853,-1.078
5.10860,-1.074
5.10867,-1.072
5.10873,-1.066
5.10880,-1.083
5.10887,-1.102
5.10893,-1.123
5.10900,-1.143
5.10907,-1.175
5.10913,-1.209
5.10920,-1.243
5.10927,-1.266
5.10933,-1.296
5.10940,-1.321
5.10947,-1.348
5.10953,-1.366
5.10960,-1.386
5.10967,-1.409
5.10973,-1.420
5.10980,-1.428
5.10987,-1.438
5.10993,-1.445
5.11000,-1.451
5.11007,-1.449
5.11013,-1.449
5.11020,-1.456
5.11027,-1.459
5.11033,-1.457
5.11040,-1.452
5.11047,-1.461
5.11053,-1.460
5.11060,-1.463
5.11067,-1.457
5.11073,-1.463
5.11080,-1.467
5.11087,-1.463
5.11093,-1.456
5.11100,-1.460
5.11107,-1.461
5.11113,-1.466
5.11120,-1.459
5.11127,-1.464
5.11133,-1.464
5.11140,-1.466
5.11147,-1.461
5.11153,-1.465
5.11160,-1.466
5.11167,-1.470
5.11173,-1.468
5.11180,-1.467
5.11187,-1.466
5.11193,-1.465
5.11200,-1.467
5.11207,-1.458
5.11213,-1.466
5.11220,-1.468
5.11227,-1.476
5.11233,-1.465
5.11240,-1.468
5.11247,-1.470
5.11253,-1.473
5.11260,-1.468
5.11267,-1.473
5.11273,-1.475
5.11280,-1.479
5.11287,-1.473
5.11293,-1.475
5.11300,-1.477
5.11307,-1.479
5.11313,-1.472
5.11320,-1.476
5.11327,-1.475
5.11333,-1.480
5.11340,-1.478
5.11347,-1.476
5.11353,-1.480
5.11360,-1.484
5.11367,-1.484
5.11373,-1.471
5.11380,-1.477
5.11387,-1.475
5.11393,-1.473
5.11400,-1.465
5.11407,-1.475
5.11413,-1.478
5.11420,-1.479
5.11427,-1.475
5.11433,-1.481
5.11440,-1.483
5.11447,-1.487
5.11453,-1.476
5.11460,-1.476
5.11467,-1.475
5.11473,-1.478
5.11480,-1.477
5.11487,-1.479
5.11493,-1.479
5.11500,-1.481
5.11507,-1.476
5.11513,-1.478
5.11520,-1.479
5.11527,-1.481
5.11533,-1.479
5.11540,-1.471
5.11547,-1.476
5.11553,-1.475
5.11560,-1.478
5.11567,-1.473
5.11573,-1.474
5.11580,-1.476
5.11587,-1.478
5.11593,-1.474
5.11600,-1.476
5.11607,-1.479
5.11613,-1.483
5.11620,-1.475
5.11627,-1.480
5.11633,-1.480
5.11640,-1.484
5.11647,-1.475
5.11653,-1.478
5.11660,-1.477
5.11667,-1.481
5.11673,-1.478
5.11680,-1.479
5.11687,-1.484
5.11693,-1.487
5.11700,-1.480
5.11707,-1.473
5.11713,-1.475
5.11720,-1.470
5.11727,-1.478
5.11733,-1.474
5.11740,-1.485
5.11747,-1.486
5.11753,-1.490
5.11760,-1.473
5.11767,-1.476
5.11773,-1.477
5.11780,-1.487
5.11787,-1.486
5.11793,-1.485
5.11800,-1.457
5.11807,-1.448
5.11813,-1.448
5.11820,-1.456
5.11827,-1.457
5.11833,-1.457
5.11840,-1.453
5.11847,-1.452
5.11853,-1.463
5.11860,-1.471
5.11867,-1.472
5.11873,-1.471
5.11880,-1.474
5.11887,-1.472
5.11893,-1.469
5.11900,-1.459
5.11907,-1.461
5.11913,-1.468
5.11920,-1.473
5.11927,-1.468
5.11933,-1.477
5.11940,-1.491
5.11947,-1.549
5.11953,-1.589
5.11960,-1.570
5.11967,-1.462
5.11973,-1.246
5.11980,-0.947
5.11987,-0.659
5.11993,-0.386
5.12000,-0.236
5.12007,-0.264
5.12013,-0.615
5.12020,-0.994
5.12027,-1.313
5.12033,-1.487
5.12040,-1.626
5.12047,-1.691
5.12053,-1.738
5.12060,-1.712
5.12067,-1.672
5.12073,-1.650
5.12080,-1.606
5.12087,-1.540
5.12093,-1.496
5.12100,-1.477
5.12107,-1.473
5.12113,-1.473
5.12120,-1.459
5.12127,-1.458
5.12133,-1.453
5.12140,-1.459
5.12147,-1.449
5.12153,-1.449
5.12160,-1.449
5.12167,-1.449
5.12173,-1.442
5.12180,-1.439
5.12187,-1.439
5.12193,-1.440
5.12200,-1.434
5.12207,-1.429
5.12213,-1.431
5.12220,-1.425
5.12227,-1.423
5.12233,-1.413
5.12240,-1.414
5.12247,-1.415
5.12253,-1.412
5.12260,-1.399
5.12267,-1.397
5.12273,-1.390
5.12280,-1.388
5.12287,-1.375
5.12293,-1.374
5.12300,-1.368
5.12307,-1.366
5.12313,-1.354
5.12320,-1.346
5.12327,-1.337
5.12333,-1.326
5.12340,-1.309
5.12347,-1.295
5.12353,-1.282
5.12360,-1.262
5.12367,-1.243
5.12373,-1.218
5.12380,-1.202
5.12387,-1.184
5.12393,-1.168
5.12400,-1.143
5.12407,-1.133
5.12413,-1.119
5.12420,-1.109
5.12427,-1.091
5.12433,-1.083
5.12440,-1.079
5.12447,-1.078
5.12453,-1.073
5.12460,-1.089
5.12467,-1.108
5.12473,-1.133
5.12480,-1.152
5.12487,-1.179
5.12493,-1.210
5.12500,-1.247
5.12507,-1.272
5.12513,-1.298
5.12520,-1.327
5.12527,-1.354
5.12533,-1.371
5.12540,-1.385
5.12547,-1.404
5.12553,-1.415
5.12560,-1.425
5.12567,-1.430
5.12573,-1.444
5.12580,-1.453
5.12587,-1.459
5.12593,-1.452
5.12600,-1.454
5.12607,-1.462
5.12613,-1.467
5.12620,-1.458
5.12627,-1.466
5.12633,-1.466
5.12640,-1.470
5.12647,-1.468
5.12653,-1.467
5.12660,-1.466
5.12667,-1.468
5.12673,-1.466
5.12680,-1.470
5.12687,-1.471
5.12693,-1.473
5.12700,-1.473
5.12707,-1.468
5.12713,-1.473
5.12720,-1.466
5.12727,-1.473
5.12733,-1.467
5.12740,-1.471
5.12747,-1.474
5.12753,-1.476
5.12760,-1.470
5.12767,-1.475
5.12773,-1.473
5.12780,-1.476
5.12787,-1.470
5.12793,-1.476
5.12800,-1.476
5.12807,-1.481
5.12813,-1.478
5.12820,-1.482
5.12827,-1.486
5.12833,-1.488
5.12840,-1.484
5.12847,-1.481
5.12853,-1.479
5.12860,-1.482
5.12867,-1.479
5.12873,-1.473
5.12880,-1.484
5.12887,-1.487
5.12893,-1.492
5.12900,-1.484
5.12907,-1.487
5.12913,-1.486
5.12920,-1.487
5.12927,-1.483
5.12933,-1.491
5.12940,-1.496
5.12947,-1.501
5.12953,-1.489
5.12960,-1.492
5.12967,-1.490
5.12973,-1.496
5.12980,-1.492
5.12987,-1.494
5.12993,-1.492
5.13000,-1.492
5.13007,-1.489
5.13013,-1.488
5.13020,-1.490
5.13027,-1.495
5.13033,-1.494
5.13040,-1.490
5.13047,-1.495
5.13053,-1.491
5.13060,-1.490
5.13067,-1.485
5.13073,-1.493
5.13080,-1.493
5.13087,-1.494
5.13093,-1.487
5.13100,-1.493
5.13107,-1.492
5.13113,-1.496
5.13120,-1.490
5.13127,-1.499
5.13133,-1.495
5.13140,-1.500
5.13147,-1.491
5.13153,-1.493
5.13160,-1.492
5.13167,-1.496
5.13173,-1.491
5.13180,-1.492
5.13187,-1.490
5.13193,-1.495
5.13200,-1.495
5.13207,-1.490
5.13213,-1.493
5.13220,-1.492
5.13227,-1.497
5.13233,-1.487
5.13240,-1.490
5.13247,-1.492
5.13253,-1.492
5.13260,-1.489
5.13267,-1.495
5.13273,-1.502
5.13280,-1.506
5.13287,-1.503
5.13293,-1.502
5.13300,-1.500
5.13307,-1.507
5.13313,-1.501
5.13320,-1.510
5.13327,-1.503
5.13333,-1.493
5.13340,-1.473
5.13347,-1.480
5.13353,-1.479
5.13360,-1.477
5.13367,-1.473
5.13373,-1.461
5.13380,-1.467
5.13387,-1.471
5.13393,-1.485
5.13400,-1.475
5.13407,-1.483
5.13413,-1.487
5.13420,-1.493
5.13427,-1.486
5.13433,-1.490
5.13440,-1.488
5.13447,-1.495
5.13453,-1.491
5.13460,-1.503
5.13467,-1.504
5.13473,-1.522
5.13480,-1.568
5.13487,-1.612
5.13493,-1.583
5.13500,-1.468
5.13507,-1.237
5.13513,-0.958
5.13520,-0.672
5.13527,-0.437
5.13533,-0.310
5.13540,-0.377
5.13547,-0.726
5.13553,-1.086
5.13560,-1.354
5.13567,-1.491
5.13573,-1.625
5.13580,-1.712
5.13587,-1.764
5.13593,-1.745
5.13600,-1.714
5.13607,-1.690
5.13613,-1.664
5.13620,-1.582
5.13627,-1.543
5.13633,-1.507
5.13640,-1.501
5.13647,-1.490
5.13653,-1.490
5.13660,-1.488
5.13667,-1.489
5.13673,-1.478
5.13680,-1.471
5.13687,-1.471
5.13693,-1.477
5.13700,-1.472
5.13707,-1.462
5.13713,-1.460
5.13720,-1.456
5.13727,-1.464
5.13733,-1.460
5.13740,-1.465
5.13747,-1.458
5.13753,-1.454
5.13760,-1.440
5.13767,-1.442
5.13773,-1.442
5.13780,-1.446
5.13787,-1.435
5.13793,-1.434
5.13800,-1.425
5.13807,-1.425
5.13813,-1.409
5.13820,-1.405
5.13827,-1.398
5.13833,-1.399
5.13840,-1.390
5.13847,-1.384
5.13853,-1.371
5.13860,-1.359
5.13867,-1.341
5.13873,-1.320
5.13880,-1.313
5.13887,-1.298
5.13893,-1.282
5.13900,-1.260
5.13907,-1.248
5.13913,-1.229
5.13920,-1.219
5.13927,-1.196
5.13933,-1.183
5.13940,-1.164
5.13947,-1.149
5.13953,-1.127
5.13960,-1.115
5.13967,-1.106
5.13973,-1.107
5.13980,-1.099
5.13987,-1.108
5.13993,-1.118
5.14000,-1.136
5.14007,-1.153
5.14013,-1.180
5.14020,-1.211
5.14027,-1.245
5.14033,-1.276
5.14040,-1.298
5.14047,-1.334
5.14053,-1.363
5.14060,-1.388
5.14067,-1.403
5.14073,-1.426
5.14080,-1.442
5.14087,-1.456
5.14093,-1.457
5.14100,-1.464
5.14107,-1.478
5.14113,-1.490
5.14120,-1.484
5.14127,-1.491
5.14133,-1.492
5.14140,-1.494
5.14147,-1.487
5.14153,-1.495
5.14160,-1.496
5.14167,-1.504
5.14173,-1.494
5.14180,-1.495
5.14187,-1.494
5.14193,-1.499
5.14200,-1.498
5.14207,-1.501
5.14213,-1.504
5.14220,-1.504
5.14227,-1.500
5.14233,-1.488
5.14240,-1.496
5.14247,-1.499
5.14253,-1.504
5.14260,-1.498
5.14267,-1.500
5.14273,-1.508
5.14280,-1.514
5.14287,-1.501
5.14293,-1.503
5.14300,-1.503
5.14307,-1.505
5.14313,-1.502
5.14320,-1.509
5.14327,-1.509
5.14333,-1.516
5.14340,-1.512
5.14347,-1.516
5.14353,-1.513
5.14360,-1.514
5.14367,-1.514
5.14373,-1.504
5.14380,-1.510
5.14387,-1.507
5.14393,-1.511
5.14400,-1.506
5.14407,-1.509
5.14413,-1.512
5.14420,-1.517
5.14427,-1.511
5.14433,-1.514
5.14440,-1.517
5.14447,-1.525
5.14453,-1.516
5.14460,-1.522
5.14467,-1.525
5.14473,-1.528
5.14480,-1.519
5.14487,-1.522
5.14493,-1.522
5.14500,-1.521
5.14507,-1.516
5.14513,-1.521
5.14520,-1.521
5.14527,-1.523
5.14533,-1.517
5.14540,-1.514
5.14547,-1.518
5.14553,-1.520
5.14560,-1.518
5.14567,-1.517
5.14573,-1.523
5.14580,-1.528
5.14587,-1.527
5.14593,-1.516
5.14600,-1.521
5.14607,-1.520
5.14613,-1.525
5.14620,-1.518
5.14627,-1.522
5.14633,-1.514
5.14640,-1.529
5.14647,-1.526
5.14653,-1.532
5.14660,-1.530
5.14667,-1.531
5.14673,-1.520
5.14680,-1.528
5.14687,-1.528
5.14693,-1.532
5.14700,-1.515
5.14707,-1.490
5.14713,-1.501
5.14720,-1.502
5.14727,-1.506
5.14733,-1.498
5.14740,-1.493
5.14747,-1.492
5.14753,-1.495
5.14760,-1.503
5.14767,-1.518
5.14773,-1.514
5.14780,-1.521
5.14787,-1.515
5.14793,-1.520
5.14800,-1.518
5.14807,-1.520
5.14813,-1.514
5.14820,-1.521
5.14827,-1.519
5.14833,-1.522
5.14840,-1.522
5.14847,-1.548
5.14853,-1.601
5.14860,-1.625
5.14867,-1.569
5.14873,-1.423
5.14880,-1.163
5.14887,-0.904
5.14893,-0.647
5.14900,-0.452
5.14907,-0.384
5.14913,-0.535
5.14920,-0.876
5.14927,-1.219
5.14933,-1.421
5.14940,-1.543
5.14947,-1.659
5.14953,-1.715
5.14960,-1.763
5.14967,-1.749
5.14973,-1.717
5.14980,-1.690
5.14987,-1.673
5.14993,-1.594
5.15000,-1.557
5.15007,-1.523
5.15013,-1.514
5.15020,-1.511
5.15027,-1.506
5.15033,-1.502
5.15040,-1.495
5.15047,-1.496
5.15053,-1.490
5.15060,-1.490
5.15067,-1.480
5.15073,-1.484
5.15080,-1.484
5.15087,-1.484
5.15093,-1.473
5.15100,-1.470
5.15107,-1.474
5.15113,-1.474
5.15120,-1.466
5.15127,-1.473
5.15133,-1.468
5.15140,-1.465
5.15147,-1.453
5.15153,-1.446
5.15160,-1.442
5.15167,-1.444
5.15173,-1.434
5.15180,-1.427
5.15187,-1.424
5.15193,-1.423
5.15200,-1.410
5.15207,-1.402
5.15213,-1.394
5.15220,-1.379
5.15227,-1.377
5.15233,-1.363
5.15240,-1.351
5.15247,-1.336
5.15253,-1.325
5.15260,-1.304
5.15267,-1.292
5.15273,-1.277
5.15280,-1.260
5.15287,-1.230
5.15293,-1.219
5.15300,-1.200
5.15307,-1.189
5.15313,-1.166
5.15320,-1.155
5.15327,-1.146
5.15333,-1.136
5.15340,-1.122
5.15347,-1.119
5.15353,-1.124
5.15360,-1.139
5.15367,-1.149
5.15373,-1.167
5.15380,-1.197
5.15387,-1.224
5.15393,-1.258
5.15400,-1.280
5.15407,-1.315
5.15413,-1.343
5.15420,-1.371
5.15427,-1.385
5.15433,-1.412
5.15440,-1.431
5.15447,-1.450
5.15453,-1.454
5.15460,-1.473
5.15467,-1.479
5.15473,-1.490
5.15480,-1.488
5.15487,-1.495
5.15493,-1.496
5.15500,-1.501
5.15507,-1.499
5.15513,-1.504
5.15520,-1.504
5.15527,-1.507
5.15533,-1.504
5.15540,-1.502
5.15547,-1.504
5.15553,-1.504
5.15560,-1.504
5.15567,-1.493
5.15573,-1.503
5.15580,-1.501
5.15587,-1.505
5.15593,-1.497
5.15600,-1.501
5.15607,-1.500
5.15613,-1.503
5.15620,-1.495
5.15627,-1.503
5.15633,-1.505
5.15640,-1.506
5.15647,-1.498
5.15653,-1.503
5.15660,-1.503
5.15667,-1.506
5.15673,-1.499
5.15680,-1.505
5.15687,-1.507
5.15693,-1.510
5.15700,-1.505
5.15707,-1.504
5.15713,-1.504
5.15720,-1.499
5.15727,-1.500
5.15733,-1.492
5.15740,-1.498
5.15747,-1.504
5.15753,-1.506
5.15760,-1.501
5.15767,-1.506
5.15773,-1.509
5.15780,-1.512
5.15787,-1.506
5.15793,-1.511
5.15800,-1.509
5.15807,-1.511
5.15813,-1.505
5.15820,-1.507
5.15827,-1.509
5.15833,-1.514
5.15840,-1.509
5.15847,-1.508
5.15853,-1.504
5.15860,-1.509
5.15867,-1.505
5.15873,-1.506
5.15880,-1.507
5.15887,-1.504
5.15893,-1.504
5.15900,-1.498
5.15907,-1.506
5.15913,-1.510
5.15920,-1.512
5.15927,-1.506
5.15933,-1.509
5.15940,-1.510
5.15947,-1.512
5.15953,-1.505
5.15960,-1.510
5.15967,-1.505
5.15973,-1.511
5.15980,-1.511
5.15987,-1.515
5.15993,-1.518
5.16000,-1.514
5.16007,-1.504
5.16013,-1.498
5.16020,-1.499
5.16027,-1.509
5.16033,-1.500
5.16040,-1.489
5.16047,-1.477
5.16053,-1.485
5.16060,-1.484
5.16067,-1.481
5.16073,-1.486
5.16080,-1.479
5.16087,-1.478
5.16093,-1.470
5.16100,-1.487
5.16107,-1.496
5.16113,-1.500
5.16120,-1.492
5.16127,-1.495
5.16133,-1.495
5.16140,-1.503
5.16147,-1.496
5.16153,-1.503
5.16160,-1.509
5.16167,-1.512
5.16173,-1.504
5.16180,-1.503
5.16187,-1.512
5.16193,-1.558
5.16200,-1.603
5.16207,-1.592
5.16213,-1.496
5.16220,-1.326
5.16227,-1.049
5.16233,-0.760
5.16240,-0.489
5.16247,-0.328
5.16253,-0.268
5.16260,-0.568
5.16267,-0.934
5.16273,-1.276
5.16280,-1.479
5.16287,-1.614
5.16293,-1.697
5.16300,-1.758
5.16307,-1.758
5.16313,-1.717
5.16320,-1.694
5.16327,-1.661
5.16333,-1.586
5.16340,-1.537
5.16347,-1.503
5.16353,-1.499
5.16360,-1.496
5.16367,-1.488
5.16373,-1.480
5.16380,-1.481
5.16387,-1.479
5.16393,-1.475
5.16400,-1.463
5.16407,-1.468
5.16413,-1.470
5.16420,-1.468
5.16427,-1.457
5.16433,-1.457
5.16440,-1.456
5.16447,-1.459
5.16453,-1.450
5.16460,-1.453
5.16467,-1.451
5.16473,-1.454
5.16480,-1.446
5.16487,-1.446
5.16493,-1.443
5.16500,-1.438
5.16507,-1.429
5.16513,-1.426
5.16520,-1.421
5.16527,-1.417
5.16533,-1.408
5.16540,-1.392
5.16547,-1.391
5.16553,-1.383
5.16560,-1.376
5.16567,-1.356
5.16573,-1.355
5.16580,-1.343
5.16587,-1.329
5.16593,-1.308
5.16600,-1.296
5.16607,-1.284
5.16613,-1.273
5.16620,-1.243
5.16627,-1.225
5.16633,-1.202
5.16640,-1.188
5.16647,-1.164
5.16653,-1.154
5.16660,-1.139
5.16667,-1.125
5.16673,-1.109
5.16680,-1.101
5.16687,-1.100
5.16693,-1.108
5.16700,-1.110
5.16707,-1.117
5.16713,-1.136
5.16720,-1.158
5.16727,-1.189
5.16733,-1.212
5.16740,-1.250
5.16747,-1.284
5.16753,-1.319
5.16760,-1.341
5.16767,-1.367
5.16773,-1.389
5.16780,-1.410
5.16787,-1.417
5.16793,-1.439
5.16800,-1.453
5.16807,-1.468
5.16813,-1.467
5.16820,-1.476
5.16827,-1.478
5.16833,-1.489
5.16840,-1.482
5.16847,-1.482
5.16853,-1.484
5.16860,-1.490
5.16867,-1.488
5.16873,-1.489
5.16880,-1.491
5.16887,-1.492
5.16893,-1.494
5.16900,-1.478
5.16907,-1.484
5.16913,-1.484
5.16920,-1.487
5.16927,-1.480
5.16933,-1.482
5.16940,-1.487
5.16947,-1.493
5.16953,-1.487
5.16960,-1.490
5.16967,-1.489
5.16973,-1.490
5.16980,-1.485
5.16987,-1.489
5.16993,-1.487
5.17000,-1.492
5.17007,-1.491
5.17013,-1.495
5.17020,-1.500
5.17027,-1.498
5.17033,-1.491
5.17040,-1.481
5.17047,-1.484
5.17053,-1.484
5.17060,-1.489
5.17067,-1.480
5.17073,-1.485
5.17080,-1.488
5.17087,-1.488
5.17093,-1.483
5.17100,-1.489
5.17107,-1.490
5.17113,-1.493
5.17120,-1.490
5.17127,-1.498
5.17133,-1.494
5.17140,-1.497
5.17147,-1.491
5.17153,-1.496
5.17160,-1.493
5.17167,-1.499
5.17173,-1.498
5.17180,-1.496
5.17187,-1.498
5.17193,-1.501
5.17200,-1.491
5.17207,-1.486
5.17213,-1.489
5.17220,-1.492
5.17227,-1.493
5.17233,-1.479
5.17240,-1.488
5.17247,-1.494
5.17253,-1.496
5.17260,-1.486
5.17267,-1.486
5.17273,-1.489
5.17280,-1.492
5.17287,-1.485
5.17293,-1.492
5.17300,-1.490
5.17307,-1.493
5.17313,-1.484
5.17320,-1.488
5.17327,-1.490
5.17333,-1.497
5.17340,-1.493
5.17347,-1.489
5.17353,-1.488
5.17360,-1.491
5.17367,-1.487
5.17373,-1.484
5.17380,-1.489
5.17387,-1.491
5.17393,-1.492
5.17400,-1.483
5.17407,-1.490
5.17413,-1.490
5.17420,-1.493
5.17427,-1.483
5.17433,-1.484
5.17440,-1.486
5.17447,-1.488
5.17453,-1.484
5.17460,-1.490
5.17467,-1.492
5.17473,-1.496
5.17480,-1.491
5.17487,-1.494
5.17493,-1.492
5.17500,-1.496
5.17507,-1.493
5.17513,-1.498
5.17520,-1.492
5.17527,-1.479
5.17533,-1.465
5.17540,-1.468
5.17547,-1.470
5.17553,-1.471
5.17560,-1.469
5.17567,-1.453
5.17573,-1.456
5.17580,-1.457
5.17587,-1.470
5.17593,-1.473
5.17600,-1.475
5.17607,-1.481
5.17613,-1.481
5.17620,-1.470
5.17627,-1.481
5.17633,-1.479
5.17640,-1.484
5.17647,-1.477
5.17653,-1.484
5.17660,-1.489
5.17667,-1.506
5.17673,-1.545
5.17680,-1.597
5.17687,-1.596
5.17693,-1.500
5.17700,-1.321
5.17707,-1.025
5.17713,-0.742
5.17720,-0.451
5.17727,-0.280
5.17733,-0.195
5.17740,-0.532
5.17747,-0.903
5.17753,-1.253
5.17760,-1.448
5.17767,-1.602
5.17773,-1.680
5.17780,-1.749
5.17787,-1.736
5.17793,-1.703
5.17800,-1.673
5.17807,-1.629
5.17813,-1.553
5.17820,-1.513
5.17827,-1.490
5.17833,-1.489
5.17840,-1.479
5.17847,-1.473
5.17853,-1.470
5.17860,-1.467
5.17867,-1.458
5.17873,-1.454
5.17880,-1.459
5.17887,-1.454
5.17893,-1.453
5.17900,-1.440
5.17907,-1.446
5.17913,-1.444
5.17920,-1.442
5.17927,-1.434
5.17933,-1.434
5.17940,-1.434
5.17947,-1.434
5.17953,-1.422
5.17960,-1.426
5.17967,-1.422
5.17973,-1.424
5.17980,-1.413
5.17987,-1.411
5.17993,-1.407
5.18000,-1.411
5.18007,-1.398
5.18013,-1.392
5.18020,-1.382
5.18027,-1.379
5.18033,-1.371
5.18040,-1.357
5.18047,-1.345
5.18053,-1.335
5.18060,-1.327
5.18067,-1.305
5.18073,-1.299
5.18080,-1.288
5.18087,-1.275
5.18093,-1.253
5.18100,-1.236
5.18107,-1.215
5.18113,-1.197
5.18120,-1.172
5.18127,-1.160
5.18133,-1.144
5.18140,-1.130
5.18147,-1.112
5.18153,-1.104
5.18160,-1.096
5.18167,-1.091
5.18173,-1.085
5.18180,-1.085
5.18187,-1.099
5.18193,-1.119
5.18200,-1.138
5.18207,-1.163
5.18213,-1.194
5.18220,-1.222
5.18227,-1.255
5.18233,-1.277
5.18240,-1.313
5.18247,-1.343
5.18253,-1.370
5.18260,-1.383
5.18267,-1.402
5.18273,-1.419
5.18280,-1.434
5.18287,-1.433
5.18293,-1.446
5.18300,-1.454
5.18307,-1.460
5.18313,-1.459
5.18320,-1.465
5.18327,-1.466
5.18333,-1.471
5.18340,-1.464
5.18347,-1.462
5.18353,-1.463
5.18360,-1.471
5.18367,-1.466
5.18373,-1.464
5.18380,-1.467
5.18387,-1.464
5.18393,-1.467
5.18400,-1.459
5.18407,-1.467
5.18413,-1.468
5.18420,-1.472
5.18427,-1.464
5.18433,-1.469
5.18440,-1.470
5.18447,-1.475
5.18453,-1.472
5.18460,-1.476
5.18467,-1.473
5.18473,-1.473
5.18480,-1.465
5.18487,-1.471
5.18493,-1.475
5.18500,-1.479
5.18507,-1.477
5.18513,-1.478
5.18520,-1.475
5.18527,-1.476
5.18533,-1.471
5.18540,-1.466
5.18547,-1.468
5.18553,-1.472
5.18560,-1.475
5.18567,-1.465
5.18573,-1.474
5.18580,-1.476
5.18587,-1.479
5.18593,-1.473
5.18600,-1.474
5.18607,-1.478
5.18613,-1.481
5.18620,-1.475
5.18627,-1.483
5.18633,-1.485
5.18640,-1.490
5.18647,-1.484
5.18653,-1.486
5.18660,-1.481
5.18667,-1.481
5.18673,-1.475
5.18680,-1.479
5.18687,-1.482
5.18693,-1.486
5.18700,-1.481
5.18707,-1.479
5.18713,-1.482
5.18720,-1.483
5.18727,-1.479
5.18733,-1.472
5.18740,-1.478
5.18747,-1.482
5.18753,-1.489
5.18760,-1.484
5.18767,-1.486
5.18773,-1.484
5.18780,-1.488
5.18787,-1.471
5.18793,-1.475
5.18800,-1.475
5.18807,-1.482
5.18813,-1.479
5.18820,-1.482
5.18827,-1.481
5.18833,-1.482
5.18840,-1.475
5.18847,-1.476
5.18853,-1.481
5.18860,-1.487
5.18867,-1.481
5.18873,-1.478
5.18880,-1.478
5.18887,-1.477
5.18893,-1.477
5.18900,-1.470
5.18907,-1.478
5.18913,-1.479
5.18920,-1.479
5.18927,-1.471
5.18933,-1.478
5.18940,-1.478
5.18947,-1.486
5.18953,-1.478
5.18960,-1.486
5.18967,-1.481
5.18973,-1.483
5.18980,-1.481
5.18987,-1.488
5.18993,-1.495
5.19000,-1.492
5.19007,-1.469
5.19013,-1.451
5.19020,-1.459
5.19027,-1.462
5.19033,-1.462
5.19040,-1.459
5.19047,-1.460
5.19053,-1.457
5.19060,-1.448
5.19067,-1.455
5.19073,-1.471
5.19080,-1.475
5.19087,-1.480
5.19093,-1.468
5.19100,-1.471
5.19107,-1.472
5.19113,-1.473
5.19120,-1.465
5.19127,-1.473
5.19133,-1.473
5.19140,-1.478
5.19147,-1.487
5.19153,-1.542
5.19160,-1.593
5.19167,-1.583
5.19173,-1.473
5.19180,-1.280
5.19187,-0.982
5.19193,-0.694
5.19200,-0.403
5.19207,-0.247
5.19213,-0.239
5.19220,-0.585
5.19227,-0.957
5.19233,-1.278
5.19240,-1.463
5.19247,-1.613
5.19253,-1.683
5.19260,-1.738
5.19267,-1.728
5.19273,-1.694
5.19280,-1.670
5.19287,-1.616
5.19293,-1.555
5.19300,-1.507
5.19307,-1.482
5.19313,-1.469
5.19320,-1.469
5.19327,-1.465
5.19333,-1.464
5.19340,-1.456
5.19347,-1.454
5.19353,-1.450
5.19360,-1.453
5.19367,-1.443
5.19373,-1.440
5.19380,-1.443
5.19387,-1.441
5.19393,-1.438
5.19400,-1.424
5.19407,-1.433
5.19413,-1.432
5.19420,-1.436
5.19427,-1.420
5.19433,-1.421
5.19440,-1.423
5.19447,-1.423
5.19453,-1.412
5.19460,-1.408
5.19467,-1.402
5.19473,-1.399
5.19480,-1.389
5.19487,-1.389
5.19493,-1.388
5.19500,-1.387
5.19507,-1.377
5.19513,-1.369
5.19520,-1.358
5.19527,-1.340
5.19533,-1.327
5.19540,-1.315
5.19547,-1.307
5.19553,-1.294
5.19560,-1.279
5.19567,-1.254
5.19573,-1.246
5.19580,-1.230
5.19587,-1.211
5.19593,-1.185
5.19600,-1.171
5.19607,-1.155
5.19613,-1.136
5.19620,-1.115
5.19627,-1.106
5.19633,-1.097
5.19640,-1.091
5.19647,-1.081
5.19653,-1.085
5.19660,-1.089
5.19667,-1.102
5.19673,-1.116
5.19680,-1.143
5.19687,-1.169
5.19693,-1.201
5.19700,-1.224
5.19707,-1.253
5.19713,-1.291
5.19720,-1.323
5.19727,-1.345
5.19733,-1.362
5.19740,-1.388
5.19747,-1.409
5.19753,-1.430
5.19760,-1.432
5.19767,-1.445
5.19773,-1.453
5.19780,-1.457
5.19787,-1.457
5.19793,-1.465
5.19800,-1.466
5.19807,-1.474
5.19813,-1.468
5.19820,-1.473
5.19827,-1.471
5.19833,-1.473
5.19840,-1.473
5.19847,-1.476
5.19853,-1.479
5.19860,-1.484
5.19867,-1.476
5.19873,-1.475
5.19880,-1.479
5.19887,-1.482
5.19893,-1.483
5.19900,-1.478
5.19907,-1.480
5.19913,-1.474
5.19920,-1.479
5.19927,-1.475
5.19933,-1.482
5.19940,-1.482
5.19947,-1.482
5.19953,-1.475
5.19960,-1.478
5.19967,-1.480
5.19973,-1.487
5.19980,-1.480
5.19987,-1.484
5.19993,-1.486
5.20000,-1.492
5.20007,-1.487
5.20013,-1.486
5.20020,-1.483
5.20027,-1.489
5.20033,-1.482
5.20040,-1.487
5.20047,-1.492
5.20053,-1.496
5.20060,-1.495
5.20067,-1.487
5.20073,-1.495
5.20080,-1.493
5.20087,-1.496
5.20093,-1.487
5.20100,-1.492
5.20107,-1.495
5.20113,-1.500
5.20120,-1.492
5.20127,-1.492
5.20133,-1.492
5.20140,-1.499
5.20147,-1.491
5.20153,-1.500
5.20160,-1.500
5.20167,-1.502
5.20173,-1.498
5.20180,-1.500
5.20187,-1.501
5.20193,-1.502
5.20200,-1.494
5.20207,-1.494
5.20213,-1.496
5.20220,-1.495
5.20227,-1.498
5.20233,-1.495
5.20240,-1.500
5.20247,-1.497
5.20253,-1.503
5.20260,-1.493
5.20267,-1.496
5.20273,-1.497
5.20280,-1.500
5.20287,-1.493
5.20293,-1.498
5.20300,-1.504
5.20307,-1.506
5.20313,-1.499
5.20320,-1.501
5.20327,-1.500
5.20333,-1.503
5.20340,-1.500
5.20347,-1.503
5.20353,-1.504
5.20360,-1.503
5.20367,-1.498
5.20373,-1.496
5.20380,-1.501
5.20387,-1.511
5.20393,-1.511
5.20400,-1.502
5.20407,-1.512
5.20413,-1.506
5.20420,-1.507
5.20427,-1.492
5.20433,-1.504
5.20440,-1.506
5.20447,-1.516
5.20453,-1.500
5.20460,-1.484
5.20467,-1.486
5.20473,-1.489
5.20480,-1.487
5.20487,-1.489
5.20493,-1.480
5.20500,-1.476
5.20507,-1.470
5.20513,-1.483
5.20520,-1.495
5.20527,-1.496
5.20533,-1.500
5.20540,-1.498
5.20547,-1.501
5.20553,-1.507
5.20560,-1.507
5.20567,-1.496
5.20573,-1.502
5.20580,-1.500
5.20587,-1.503
5.20593,-1.503
5.20600,-1.531
5.20607,-1.584
5.20613,-1.612
5.20620,-1.546
5.20627,-1.412
5.20633,-1.143
5.20640,-0.874
5.20647,-0.595
5.20653,-0.406
5.20660,-0.318
5.20667,-0.516
5.20673,-0.868
5.20680,-1.219
5.20687,-1.423
5.20693,-1.551
5.20700,-1.664
5.20707,-1.722
5.20713,-1.761
5.20720,-1.743
5.20727,-1.709
5.20733,-1.678
5.20740,-1.651
5.20747,-1.574
5.20753,-1.540
5.20760,-1.501
5.20767,-1.501
5.20773,-1.506
5.20780,-1.504
5.20787,-1.490
5.20793,-1.490
5.20800,-1.486
5.20807,-1.486
5.20813,-1.470
5.20820,-1.473
5.20827,-1.473
5.20833,-1.477
5.20840,-1.470
5.20847,-1.469
5.20853,-1.468
5.20860,-1.467
5.20867,-1.459
5.20873,-1.457
5.20880,-1.459
5.20887,-1.451
5.20893,-1.445
5.20900,-1.433
5.20907,-1.441
5.20913,-1.437
5.20920,-1.439
5.20927,-1.424
5.20933,-1.421
5.20940,-1.417
5.20947,-1.414
5.20953,-1.398
5.20960,-1.395
5.20967,-1.382
5.20973,-1.381
5.20980,-1.365
5.20987,-1.358
5.20993,-1.344
5.21000,-1.337
5.21007,-1.315
5.21013,-1.301
5.21020,-1.282
5.21027,-1.265
5.21033,-1.243
5.21040,-1.229
5.21047,-1.210
5.21053,-1.199
5.21060,-1.183
5.21067,-1.154
5.21073,-1.146
5.21080,-1.136
5.21087,-1.128
5.21093,-1.112
5.21100,-1.113
5.21107,-1.117
5.21113,-1.128
5.21120,-1.144
5.21127,-1.174
5.21133,-1.198
5.21140,-1.226
5.21147,-1.249
5.21153,-1.281
5.21160,-1.310
5.21167,-1.340
5.21173,-1.361
5.21180,-1.390
5.21187,-1.411
5.21193,-1.431
5.21200,-1.448
5.21207,-1.459
5.21213,-1.471
5.21220,-1.481
5.21227,-1.482
5.21233,-1.475
5.21240,-1.487
5.21247,-1.493
5.21253,-1.499
5.21260,-1.496
5.21267,-1.502
5.21273,-1.504
5.21280,-1.504
5.21287,-1.495
5.21293,-1.504
5.21300,-1.506
5.21307,-1.515
5.21313,-1.506
5.21320,-1.512
5.21327,-1.510
5.21333,-1.512
5.21340,-1.502
5.21347,-1.507
5.21353,-1.509
5.21360,-1.511
5.21367,-1.509
5.21373,-1.507
5.21380,-1.509
5.21387,-1.509
5.21393,-1.505
5.21400,-1.498
5.21407,-1.503
5.21413,-1.506
5.21420,-1.512
5.21427,-1.501
5.21433,-1.507
5.21440,-1.511
5.21447,-1.517
5.21453,-1.514
5.21460,-1.516
5.21467,-1.514
5.21473,-1.520
5.21480,-1.509
5.21487,-1.513
5.21493,-1.514
5.21500,-1.518
5.21507,-1.515
5.21513,-1.518
5.21520,-1.516
5.21527,-1.517
5.21533,-1.516
5.21540,-1.520
5.21547,-1.520
5.21553,-1.520
5.21560,-1.520
5.21567,-1.511
5.21573,-1.519
5.21580,-1.514
5.21587,-1.517
5.21593,-1.513
5.21600,-1.523
5.21607,-1.525
5.21613,-1.526
5.21620,-1.517
5.21627,-1.520
5.21633,-1.520
5.21640,-1.521
5.21647,-1.515
5.21653,-1.525
5.21660,-1.526
5.21667,-1.529
5.21673,-1.519
5.21680,-1.520
5.21687,-1.521
5.21693,-1.525
5.21700,-1.518
5.21707,-1.518
5.21713,-1.519
5.21720,-1.519
5.21727,-1.520
5.21733,-1.514
5.21740,-1.519
5.21747,-1.521
5.21753,-1.524
5.21760,-1.515
5.21767,-1.515
5.21773,-1.520
5.21780,-1.524
5.21787,-1.518
5.21793,-1.523
5.21800,-1.521
5.21807,-1.531
5.21813,-1.515
5.21820,-1.529
5.21827,-1.528
5.21833,-1.533
5.21840,-1.518
5.21847,-1.504
5.21853,-1.498
5.21860,-1.498
5.21867,-1.495
5.21873,-1.501
5.21880,-1.498
5.21887,-1.495
5.21893,-1.491
5.21900,-1.487
5.21907,-1.507
5.21913,-1.509
5.21920,-1.515
5.21927,-1.504
5.21933,-1.506
5.21940,-1.509
5.21947,-1.512
5.21953,-1.507
5.21960,-1.514
5.21967,-1.520
5.21973,-1.524
5.21980,-1.511
5.21987,-1.531
5.21993,-1.574
5.22000,-1.616
5.22007,-1.579
5.22013,-1.467
5.22020,-1.244
5.22027,-0.984
5.22033,-0.704
5.22040,-0.483
5.22047,-0.371
5.22053,-0.438
5.22060,-0.758
5.22067,-1.102
5.22073,-1.359
5.22080,-1.497
5.22087,-1.629
5.22093,-1.701
5.22100,-1.755
5.22107,-1.747
5.22113,-1.712
5.22120,-1.684
5.22127,-1.673
5.22133,-1.593
5.22140,-1.550
5.22147,-1.508
5.22153,-1.505
5.22160,-1.496
5.22167,-1.491
5.22173,-1.484
5.22180,-1.487
5.22187,-1.484
5.22193,-1.486
5.22200,-1.478
5.22207,-1.474
5.22213,-1.470
5.22220,-1.470
5.22227,-1.467
5.22233,-1.459
5.22240,-1.465
5.22247,-1.464
5.22253,-1.463
5.22260,-1.453
5.22267,-1.455
5.22273,-1.449
5.22280,-1.446
5.22287,-1.434
5.22293,-1.438
5.22300,-1.436
5.22307,-1.434
5.22313,-1.418
5.22320,-1.415
5.22327,-1.407
5.22333,-1.408
5.22340,-1.398
5.22347,-1.393
5.22353,-1.385
5.22360,-1.372
5.22367,-1.354
5.22373,-1.346
5.22380,-1.337
5.22387,-1.326
5.22393,-1.310
5.22400,-1.290
5.22407,-1.276
5.22413,-1.255
5.22420,-1.241
5.22427,-1.216
5.22433,-1.206
5.22440,-1.188
5.22447,-1.171
5.22453,-1.144
5.22460,-1.138
5.22467,-1.122
5.22473,-1.119
5.22480,-1.102
5.22487,-1.103
5.22493,-1.102
5.22500,-1.114
5.22507,-1.121
5.22513,-1.145
5.22520,-1.171
5.22527,-1.204
5.22533,-1.229
5.22540,-1.260
5.22547,-1.291
5.22553,-1.322
5.22560,-1.346
5.22567,-1.364
5.22573,-1.393
5.22580,-1.410
5.22587,-1.433
5.22593,-1.434
5.22600,-1.451
5.22607,-1.462
5.22613,-1.471
5.22620,-1.468
5.22627,-1.475
5.22633,-1.473
5.22640,-1.479
5.22647,-1.475
5.22653,-1.483
5.22660,-1.481
5.22667,-1.482
5.22673,-1.477
5.22680,-1.482
5.22687,-1.481
5.22693,-1.488
5.22700,-1.481
5.22707,-1.480
5.22713,-1.482
5.22720,-1.483
5.22727,-1.480
5.22733,-1.474
5.22740,-1.482
5.22747,-1.482
5.22753,-1.489
5.22760,-1.475
5.22767,-1.482
5.22773,-1.482
5.22780,-1.489
5.22787,-1.477
5.22793,-1.483
5.22800,-1.484
5.22807,-1.484
5.22813,-1.471
5.22820,-1.478
5.22827,-1.479
5.22833,-1.482
5.22840,-1.475
5.22847,-1.481
5.22853,-1.481
5.22860,-1.485
5.22867,-1.480
5.22873,-1.482
5.22880,-1.484
5.22887,-1.487
5.22893,-1.486
5.22900,-1.475
5.22907,-1.480
5.22913,-1.483
5.22920,-1.492
5.22927,-1.486
5.22933,-1.490
5.22940,-1.491
5.22947,-1.493
5.22953,-1.484
5.22960,-1.490
5.22967,-1.489
5.22973,-1.493
5.22980,-1.480
5.22987,-1.486
5.22993,-1.486
5.23000,-1.487
5.23007,-1.482
5.23013,-1.489
5.23020,-1.492
5.23027,-1.495
5.23033,-1.487
5.23040,-1.484
5.23047,-1.485
5.23053,-1.490
5.23060,-1.486
5.23067,-1.478
5.23073,-1.482
5.23080,-1.483
5.23087,-1.489
5.23093,-1.475
5.23100,-1.481
5.23107,-1.486
5.23113,-1.493
5.23120,-1.482
5.23127,-1.482
5.23133,-1.484
5.23140,-1.487
5.23147,-1.479
5.23153,-1.481
5.23160,-1.482
5.23167,-1.484
5.23173,-1.484
5.23180,-1.487
5.23187,-1.486
5.23193,-1.484
5.23200,-1.480
5.23207,-1.478
5.23213,-1.481
5.23220,-1.485
5.23227,-1.479
5.23233,-1.475
5.23240,-1.476
5.23247,-1.475
5.23253,-1.477
5.23260,-1.467
5.23267,-1.475
5.23273,-1.480
5.23280,-1.483
5.23287,-1.482
5.23293,-1.481
5.23300,-1.482
5.23307,-1.486
5.23313,-1.473
5.23320,-1.481
5.23327,-1.489
5.23333,-1.495
5.23340,-1.485
5.23347,-1.476
5.23353,-1.462
5.23360,-1.467
5.23367,-1.461
5.23373,-1.459
5.23380,-1.459
5.23387,-1.462
5.23393,-1.457
5.23400,-1.445
5.23407,-1.446
5.23413,-1.464
5.23420,-1.472
5.23427,-1.467
5.23433,-1.469
5.23440,-1.469
5.23447,-1.470
5.23453,-1.460
5.23460,-1.467
5.23467,-1.467
5.23473,-1.473
5.23480,-1.467
5.23487,-1.478
5.23493,-1.519
5.23500,-1.577
5.23507,-1.587
5.23513,-1.504
5.23520,-1.349
5.23527,-1.068
5.23533,-0.778
5.23540,-0.493
5.23547,-0.297
5.23553,-0.183
5.23560,-0.447
5.23567,-0.813
5.23573,-1.188
5.23580,-1.419
5.23587,-1.577
5.23593,-1.647
5.23600,-1.723
5.23607,-1.730
5.23613,-1.690
5.23620,-1.653
5.23627,-1.614
5.23633,-1.548
5.23640,-1.509
5.23647,-1.472
5.23653,-1.469
5.23660,-1.465
5.23667,-1.467
5.23673,-1.456
5.23680,-1.456
5.23687,-1.450
5.23693,-1.453
5.23700,-1.442
5.23707,-1.438
5.23713,-1.440
5.23720,-1.439
5.23727,-1.437
5.23733,-1.428
5.23740,-1.428
5.23747,-1.426
5.23753,-1.426
5.23760,-1.420
5.23767,-1.423
5.23773,-1.423
5.23780,-1.418
5.23787,-1.404
5.23793,-1.404
5.23800,-1.405
5.23807,-1.406
5.23813,-1.393
5.23820,-1.392
5.23827,-1.386
5.23833,-1.384
5.23840,-1.373
5.23847,-1.369
5.23853,-1.359
5.23860,-1.356
5.23867,-1.339
5.23873,-1.326
5.23880,-1.321
5.23887,-1.310
5.23893,-1.293
5.23900,-1.273
5.23907,-1.261
5.23913,-1.238
5.23920,-1.225
5.23927,-1.197
5.23933,-1.185
5.23940,-1.166
5.23947,-1.150
5.23953,-1.128
5.23960,-1.115
5.23967,-1.100
5.23973,-1.090
5.23980,-1.070
5.23987,-1.064
5.23993,-1.063
5.24000,-1.073
5.24007,-1.080
5.24013,-1.102
5.24020,-1.122
5.24027,-1.149
5.24033,-1.175
5.24040,-1.204
5.24047,-1.235
5.24053,-1.266
5.24060,-1.296
5.24067,-1.316
5.24073,-1.348
5.24080,-1.367
5.24087,-1.393
5.24093,-1.400
5.24100,-1.415
5.24107,-1.429
5.24113,-1.439
5.24120,-1.434
5.24127,-1.445
5.24133,-1.448
5.24140,-1.456
5.24147,-1.454
5.24153,-1.459
5.24160,-1.460
5.24167,-1.467
5.24173,-1.459
5.24180,-1.462
5.24187,-1.465
5.24193,-1.467
5.24200,-1.460
5.24207,-1.456
5.24213,-1.457
5.24220,-1.462
5.24227,-1.460
5.24233,-1.454
5.24240,-1.461
5.24247,-1.459
5.24253,-1.464
5.24260,-1.453
5.24267,-1.456
5.24273,-1.459
5.24280,-1.464
5.24287,-1.456
5.24293,-1.460
5.24300,-1.460
5.24307,-1.465
5.24313,-1.459
5.24320,-1.466
5.24327,-1.463
5.24333,-1.465
5.24340,-1.460
5.24347,-1.465
5.24353,-1.466
5.24360,-1.473
5.24367,-1.465
5.24373,-1.465
5.24380,-1.468
5.24387,-1.471
5.24393,-1.468
5.24400,-1.463
5.24407,-1.468
5.24413,-1.464
5.24420,-1.469
5.24427,-1.458
5.24433,-1.464
5.24440,-1.467
5.24447,-1.471
5.24453,-1.463
5.24460,-1.469
5.24467,-1.468
5.24473,-1.475
5.24480,-1.465
5.24487,-1.471
5.24493,-1.473
5.24500,-1.477
5.24507,-1.471
5.24513,-1.474
5.24520,-1.473
5.24527,-1.475
5.24533,-1.473
5.24540,-1.470
5.24547,-1.470
5.24553,-1.473
5.24560,-1.469
5.24567,-1.468
5.24573,-1.472
5.24580,-1.469
5.24587,-1.473
5.24593,-1.461
5.24600,-1.468
5.24607,-1.473
5.24613,-1.474
5.24620,-1.468
5.24627,-1.477
5.24633,-1.478
5.24640,-1.479
5.24647,-1.467
5.24653,-1.470
5.24660,-1.469
5.24667,-1.473
5.24673,-1.470
5.24680,-1.467
5.24687,-1.473
5.24693,-1.477
5.24700,-1.470
5.24707,-1.465
5.24713,-1.467
5.24720,-1.473
5.24727,-1.470
5.24733,-1.467
5.24740,-1.472
5.24747,-1.470
5.24753,-1.476
5.24760,-1.467
5.24767,-1.468
5.24773,-1.471
5.24780,-1.471
5.24787,-1.465
5.24793,-1.471
5.24800,-1.470
5.24807,-1.475
5.24813,-1.468
5.24820,-1.472
5.24827,-1.470
5.24833,-1.477
5.24840,-1.471
5.24847,-1.479
5.24853,-1.476
5.24860,-1.476
5.24867,-1.467
5.24873,-1.468
5.24880,-1.475
5.24887,-1.483
5.24893,-1.477
5.24900,-1.474
5.24907,-1.475
5.24913,-1.471
5.24920,-1.479
5.24927,-1.471
5.24933,-1.481
5.24940,-1.477
5.24947,-1.451
5.24953,-1.443
5.24960,-1.447
5.24967,-1.451
5.24973,-1.454
5.24980,-1.442
5.24987,-1.445
5.24993,-1.441
5.25000,-1.460
5.25007,-1.460
5.25013,-1.465
5.25020,-1.469
5.25027,-1.472
5.25033,-1.463
5.25040,-1.463
5.25047,-1.461
5.25053,-1.461
5.25060,-1.459
5.25067,-1.456
5.25073,-1.467
5.25080,-1.470
5.25087,-1.505
5.25093,-1.548
5.25100,-1.586
5.25107,-1.539
5.25113,-1.410
5.25120,-1.135
5.25127,-0.859
5.25133,-0.579
5.25140,-0.341
5.25147,-0.201
5.25153,-0.334
5.25160,-0.715
5.25167,-1.082
5.25173,-1.354
5.25180,-1.515
5.25187,-1.645
5.25193,-1.722
5.25200,-1.739
5.25207,-1.701
5.25213,-1.672
5.25220,-1.639
5.25227,-1.570
5.25233,-1.506
5.25240,-1.475
5.25247,-1.464
5.25253,-1.465
5.25260,-1.452
5.25267,-1.453
5.25273,-1.451
5.25280,-1.448
5.25287,-1.435
5.25293,-1.437
5.25300,-1.439
5.25307,-1.445
5.25313,-1.435
5.25320,-1.437
5.25327,-1.435
5.25333,-1.435
5.25340,-1.426
5.25347,-1.426
5.25353,-1.420
5.25360,-1.426
5.25367,-1.421
5.25373,-1.420
5.25380,-1.413
5.25387,-1.410
5.25393,-1.403
5.25400,-1.393
5.25407,-1.398
5.25413,-1.394
5.25420,-1.392
5.25427,-1.378
5.25433,-1.376
5.25440,-1.369
5.25447,-1.365
5.25453,-1.349
5.25460,-1.346
5.25467,-1.337
5.25473,-1.329
5.25480,-1.310
5.25487,-1.300
5.25493,-1.288
5.25500,-1.274
5.25507,-1.252
5.25513,-1.235
5.25520,-1.214
5.25527,-1.196
5.25533,-1.172
5.25540,-1.157
5.25547,-1.141
5.25553,-1.127
5.25560,-1.109
5.25567,-1.086
5.25573,-1.080
5.25580,-1.072
5.25587,-1.073
5.25593,-1.063
5.25600,-1.074
5.25607,-1.091
5.25613,-1.111
5.25620,-1.127
5.25627,-1.157
5.25633,-1.186
5.25640,-1.215
5.25647,-1.238
5.25653,-1.274
5.25660,-1.304
5.25667,-1.334
5.25673,-1.353
5.25680,-1.376
5.25687,-1.393
5.25693,-1.412
5.25700,-1.418
5.25707,-1.426
5.25713,-1.434
5.25720,-1.442
5.25727,-1.440
5.25733,-1.440
5.25740,-1.446
5.25747,-1.452
5.25753,-1.462
5.25760,-1.453
5.25767,-1.457
5.25773,-1.459
5.25780,-1.461
5.25787,-1.453
5.25793,-1.457
5.25800,-1.461
5.25807,-1.465
5.25813,-1.455
5.25820,-1.458
5.25827,-1.456
5.25833,-1.461
5.25840,-1.456
5.25847,-1.462
5.25853,-1.462
5.25860,-1.462
5.25867,-1.454
5.25873,-1.457
5.25880,-1.464
5.25887,-1.470
5.25893,-1.467
5.25900,-1.462
5.25907,-1.464
5.25913,-1.459
5.25920,-1.464
5.25927,-1.453
5.25933,-1.459
5.25940,-1.465
5.25947,-1.467
5.25953,-1.460
5.25960,-1.462
5.25967,-1.462
5.25973,-1.466
5.25980,-1.458
5.25987,-1.464
5.25993,-1.467
5.26000,-1.470
5.26007,-1.465
5.26013,-1.470
5.26020,-1.469
5.26027,-1.471
5.26033,-1.466
5.26040,-1.466
5.26047,-1.468
5.26053,-1.469
5.26060,-1.468
5.26067,-1.465
5.26073,-1.472
5.26080,-1.468
5.26087,-1.475
5.26093,-1.464
5.26100,-1.471
5.26107,-1.473
5.26113,-1.474
5.26120,-1.464
5.26127,-1.465
5.26133,-1.465
5.26140,-1.471
5.26147,-1.469
5.26153,-1.474
5.26160,-1.475
5.26167,-1.476
5.26173,-1.468
5.26180,-1.473
5.26187,-1.471
5.26193,-1.475
5.26200,-1.471
5.26207,-1.471
5.26213,-1.473
5.26220,-1.478
5.26227,-1.472
5.26233,-1.466
5.26240,-1.471
5.26247,-1.468
5.26253,-1.471
5.26260,-1.462
5.26267,-1.467
5.26273,-1.474
5.26280,-1.478
5.26287,-1.469
5.26293,-1.468
5.26300,-1.469
5.26307,-1.470
5.26313,-1.462
5.26320,-1.469
5.26327,-1.470
5.26333,-1.475
5.26340,-1.465
5.26347,-1.470
5.26353,-1.468
5.26360,-1.472
5.26367,-1.470
5.26373,-1.471
5.26380,-1.473
5.26387,-1.477
5.26393,-1.473
5.26400,-1.467
5.26407,-1.470
5.26413,-1.468
5.26420,-1.471
5.26427,-1.459
5.26433,-1.462
5.26440,-1.467
5.26447,-1.471
5.26453,-1.460
5.26460,-1.465
5.26467,-1.465
5.26473,-1.471
5.26480,-1.463
5.26487,-1.472
5.26493,-1.474
5.26500,-1.481
5.26507,-1.481
5.26513,-1.491
5.26520,-1.494
5.26527,-1.486
5.26533,-1.480
5.26540,-1.485
5.26547,-1.492
5.26553,-1.504
5.26560,-1.482
5.26567,-1.444
5.26573,-1.443
5.26580,-1.445
5.26587,-1.453
5.26593,-1.441
5.26600,-1.444
5.26607,-1.448
5.26613,-1.451
5.26620,-1.448
5.26627,-1.462
5.26633,-1.465
5.26640,-1.471
5.26647,-1.459
5.26653,-1.465
5.26660,-1.467
5.26667,-1.468
5.26673,-1.457
5.26680,-1.459
5.26687,-1.464
5.26693,-1.472
5.26700,-1.491
5.26707,-1.548
5.26713,-1.583
5.26720,-1.551
5.26727,-1.420
5.26733,-1.161
5.26740,-0.876
5.26747,-0.586
5.26753,-0.346
5.26760,-0.193
5.26767,-0.307
5.26773,-0.687
5.26780,-1.065
5.26787,-1.337
5.26793,-1.498
5.26800,-1.632
5.26807,-1.700
5.26813,-1.730
5.26820,-1.700
5.26827,-1.666
5.26833,-1.643
5.26840,-1.584
5.26847,-1.525
5.26853,-1.486
5.26860,-1.473
5.26867,-1.467
5.26873,-1.462
5.26880,-1.458
5.26887,-1.453
5.26893,-1.444
5.26900,-1.435
5.26907,-1.437
5.26913,-1.439
5.26920,-1.442
5.26927,-1.429
5.26933,-1.430
5.26940,-1.430
5.26947,-1.431
5.26953,-1.422
5.26960,-1.426
5.26967,-1.428
5.26973,-1.429
5.26980,-1.415
5.26987,-1.418
5.26993,-1.415
5.27000,-1.415
5.27007,-1.404
5.27013,-1.405
5.27020,-1.403
5.27027,-1.404
5.27033,-1.393
5.27040,-1.386
5.27047,-1.378
5.27053,-1.376
5.27060,-1.362
5.27067,-1.349
5.27073,-1.351
5.27080,-1.345
5.27087,-1.338
5.27093,-1.313
5.27100,-1.299
5.27107,-1.288
5.27113,-1.275
5.27120,-1.250
5.27127,-1.239
5.27133,-1.226
5.27140,-1.208
5.27147,-1.182
5.27153,-1.172
5.27160,-1.157
5.27167,-1.140
5.27173,-1.111
5.27180,-1.106
5.27187,-1.094
5.27193,-1.086
5.27200,-1.077
5.27207,-1.074
5.27213,-1.077
5.27220,-1.089
5.27227,-1.105
5.27233,-1.123
5.27240,-1.153
5.27247,-1.183
5.27253,-1.219
5.27260,-1.241
5.27267,-1.276
5.27273,-1.307
5.27280,-1.338
5.27287,-1.356
5.27293,-1.384
5.27300,-1.401
5.27307,-1.418
5.27313,-1.422
5.27320,-1.436
5.27327,-1.442
5.27333,-1.455
5.27340,-1.454
5.27347,-1.464
5.27353,-1.464
5.27360,-1.473
5.27367,-1.469
5.27373,-1.471
5.27380,-1.478
5.27387,-1.479
5.27393,-1.476
5.27400,-1.475
5.27407,-1.479
5.27413,-1.478
5.27420,-1.484
5.27427,-1.471
5.27433,-1.475
5.27440,-1.480
5.27447,-1.481
5.27453,-1.469
5.27460,-1.472
5.27467,-1.475
5.27473,-1.481
5.27480,-1.473
5.27487,-1.478
5.27493,-1.479
5.27500,-1.489
5.27507,-1.482
5.27513,-1.487
5.27520,-1.486
5.27527,-1.491
5.27533,-1.484
5.27540,-1.484
5.27547,-1.488
5.27553,-1.488
5.27560,-1.484
5.27567,-1.478
5.27573,-1.483
5.27580,-1.483
5.27587,-1.493
5.27593,-1.481
5.27600,-1.490
5.27607,-1.492
5.27613,-1.494
5.27620,-1.487
5.27627,-1.490
5.27633,-1.493
5.27640,-1.501
5.27647,-1.492
5.27653,-1.498
5.27660,-1.493
5.27667,-1.501
5.27673,-1.495
5.27680,-1.497
5.27687,-1.500
5.27693,-1.502
5.27700,-1.498
5.27707,-1.495
5.27713,-1.501
5.27720,-1.501
5.27727,-1.493
5.27733,-1.494
5.27740,-1.501
5.27747,-1.502
5.27753,-1.507
5.27760,-1.494
5.27767,-1.500
5.27773,-1.503
5.27780,-1.504
5.27787,-1.494
5.27793,-1.497
5.27800,-1.500
5.27807,-1.504
5.27813,-1.498
5.27820,-1.508
5.27827,-1.505
5.27833,-1.507
5.27840,-1.502
5.27847,-1.506
5.27853,-1.506
5.27860,-1.510
5.27867,-1.503
5.27873,-1.504
5.27880,-1.506
5.27887,-1.512
5.27893,-1.514
5.27900,-1.504
5.27907,-1.507
5.27913,-1.503
5.27920,-1.508
5.27927,-1.497
5.27933,-1.504
5.27940,-1.505
5.27947,-1.503
5.27953,-1.493
5.27960,-1.503
5.27967,-1.506
5.27973,-1.510
5.27980,-1.501
5.27987,-1.507
5.27993,-1.509
5.28000,-1.513
5.28007,-1.507
5.28013,-1.516
5.28020,-1.520
5.28027,-1.520
5.28033,-1.508
5.28040,-1.506
5.28047,-1.515
5.28053,-1.518
5.28060,-1.512
5.28067,-1.492
5.28073,-1.482
5.28080,-1.481
5.28087,-1.488
5.28093,-1.486
5.28100,-1.492
5.28107,-1.480
5.28113,-1.486
5.28120,-1.477
5.28127,-1.496
5.28133,-1.503
5.28140,-1.506
5.28147,-1.501
5.28153,-1.503
5.28160,-1.500
5.28167,-1.509
5.28173,-1.499
5.28180,-1.504
5.28187,-1.500
5.28193,-1.511
5.28200,-1.508
5.28207,-1.526
5.28213,-1.572
5.28220,-1.613
5.28227,-1.585
5.28233,-1.477
5.28240,-1.260
5.28247,-0.991
5.28253,-0.713
5.28260,-0.482
5.28267,-0.367
5.28273,-0.417
5.28280,-0.749
5.28287,-1.106
5.28293,-1.360
5.28300,-1.496
5.28307,-1.623
5.28313,-1.708
5.28320,-1.753
5.28327,-1.747
5.28333,-1.717
5.28340,-1.691
5.28347,-1.682
5.28353,-1.616
5.28360,-1.562
5.28367,-1.521
5.28373,-1.506
5.28380,-1.503
5.28387,-1.502
5.28393,-1.496
5.28400,-1.488
5.28407,-1.490
5.28413,-1.486
5.28420,-1.490
5.28427,-1.474
5.28433,-1.474
5.28440,-1.474
5.28447,-1.478
5.28453,-1.467
5.28460,-1.473
5.28467,-1.472
5.28473,-1.475
5.28480,-1.463
5.28487,-1.464
5.28493,-1.462
5.28500,-1.462
5.28507,-1.448
5.28513,-1.450
5.28520,-1.448
5.28527,-1.445
5.28533,-1.432
5.28540,-1.427
5.28547,-1.428
5.28553,-1.420
5.28560,-1.404
5.28567,-1.396
5.28573,-1.390
5.28580,-1.382
5.28587,-1.382
5.28593,-1.360
5.28600,-1.358
5.28607,-1.348
5.28613,-1.337
5.28620,-1.311
5.28627,-1.299
5.28633,-1.285
5.28640,-1.268
5.28647,-1.238
5.28653,-1.223
5.28660,-1.204
5.28667,-1.190
5.28673,-1.171
5.28680,-1.161
5.28687,-1.146
5.28693,-1.138
5.28700,-1.124
5.28707,-1.118
5.28713,-1.116
5.28720,-1.125
5.28727,-1.133
5.28733,-1.147
5.28740,-1.172
5.28747,-1.195
5.28753,-1.228
5.28760,-1.249
5.28767,-1.286
5.28773,-1.319
5.28780,-1.351
5.28787,-1.367
5.28793,-1.388
5.28800,-1.414
5.28807,-1.434
5.28813,-1.442
5.28820,-1.458
5.28827,-1.469
5.28833,-1.482
5.28840,-1.481
5.28847,-1.491
5.28853,-1.497
5.28860,-1.501
5.28867,-1.496
5.28873,-1.496
5.28880,-1.497
5.28887,-1.499
5.28893,-1.494
5.28900,-1.493
5.28907,-1.503
5.28913,-1.501
5.28920,-1.504
5.28927,-1.491
5.28933,-1.501
5.28940,-1.503
5.28947,-1.504
5.28953,-1.496
5.28960,-1.503
5.28967,-1.509
5.28973,-1.513
5.28980,-1.501
5.28987,-1.505
5.28993,-1.505
5.29000,-1.512
5.29007,-1.505
5.29013,-1.503
5.29020,-1.505
5.29027,-1.509
5.29033,-1.504
5.29040,-1.504
5.29047,-1.504
5.29053,-1.506
5.29060,-1.507
5.29067,-1.502
5.29073,-1.508
5.29080,-1.508
5.29087,-1.513
5.29093,-1.504
5.29100,-1.512
5.29107,-1.514
5.29113,-1.517
5.29120,-1.511
5.29127,-1.512
5.29133,-1.518
5.29140,-1.525
5.29147,-1.517
5.29153,-1.515
5.29160,-1.512
5.29167,-1.515
5.29173,-1.512
5.29180,-1.515
5.29187,-1.517
5.29193,-1.520
5.29200,-1.512
5.29207,-1.515
5.29213,-1.515
5.29220,-1.517
5.29227,-1.517
5.29233,-1.513
5.29240,-1.514
5.29247,-1.513
5.29253,-1.520
5.29260,-1.512
5.29267,-1.520
5.29273,-1.521
5.29280,-1.519
5.29287,-1.504
5.29293,-1.511
5.29300,-1.515
5.29307,-1.523
5.29313,-1.514
5.29320,-1.520
5.29327,-1.516
5.29333,-1.519
5.29340,-1.511
5.29347,-1.517
5.29353,-1.516
5.29360,-1.520
5.29367,-1.511
5.29373,-1.511
5.29380,-1.511
5.29387,-1.517
5.29393,-1.516
5.29400,-1.514
5.29407,-1.521
5.29413,-1.523
5.29420,-1.525
5.29427,-1.509
5.29433,-1.514
5.29440,-1.520
5.29447,-1.518
5.29453,-1.512
5.29460,-1.516
5.29467,-1.506
5.29473,-1.502
5.29480,-1.497
5.29487,-1.500
5.29493,-1.496
5.29500,-1.495
5.29507,-1.480
5.29513,-1.479
5.29520,-1.482
5.29527,-1.501
5.29533,-1.504
5.29540,-1.507
5.29547,-1.506
5.29553,-1.507
5.29560,-1.504
5.29567,-1.501
5.29573,-1.508
5.29580,-1.506
5.29587,-1.509
5.29593,-1.502
5.29600,-1.513
5.29607,-1.526
5.29613,-1.575
5.29620,-1.617
5.29627,-1.593
5.29633,-1.492
5.29640,-1.306
5.29647,-1.028
5.29653,-0.761
5.29660,-0.517
5.29667,-0.383
5.29673,-0.359
5.29680,-0.676
5.29687,-1.028
5.29693,-1.323
5.29700,-1.482
5.29707,-1.615
5.29713,-1.698
5.29720,-1.752
5.29727,-1.750
5.29733,-1.711
5.29740,-1.691
5.29747,-1.680
5.29753,-1.608
5.29760,-1.547
5.29767,-1.523
5.29773,-1.513
5.29780,-1.511
5.29787,-1.497
5.29793,-1.493
5.29800,-1.489
5.29807,-1.492
5.29813,-1.480
5.29820,-1.479
5.29827,-1.477
5.29833,-1.481
5.29840,-1.472
5.29847,-1.472
5.29853,-1.471
5.29860,-1.469
5.29867,-1.466
5.29873,-1.467
5.29880,-1.468
5.29887,-1.470
5.29893,-1.461
5.29900,-1.454
5.29907,-1.454
5.29913,-1.442
5.29920,-1.440
5.29927,-1.425
5.29933,-1.428
5.29940,-1.423
5.29947,-1.424
5.29953,-1.406
5.29960,-1.405
5.29967,-1.399
5.29973,-1.393
5.29980,-1.376
5.29987,-1.373
5.29993,-1.361
5.30000,-1.357
5.30007,-1.337
5.30013,-1.320
5.30020,-1.305
5.30027,-1.293
5.30033,-1.269
5.30040,-1.252
5.30047,-1.234
5.30053,-1.218
5.30060,-1.197
5.30067,-1.179
5.30073,-1.167
5.30080,-1.151
5.30087,-1.141
5.30093,-1.114
5.30100,-1.116
5.30107,-1.112
5.30113,-1.111
5.30120,-1.106
5.30127,-1.124
5.30133,-1.147
5.30140,-1.165
5.30147,-1.181
5.30153,-1.216
5.30160,-1.249
5.30167,-1.284
5.30173,-1.310
5.30180,-1.338
5.30187,-1.364
5.30193,-1.394
5.30200,-1.410
5.30207,-1.428
5.30213,-1.441
5.30220,-1.456
5.30227,-1.465
5.30233,-1.467
5.30240,-1.475
5.30247,-1.478
5.30253,-1.485
5.30260,-1.475
5.30267,-1.486
5.30273,-1.492
5.30280,-1.492
5.30287,-1.484
5.30293,-1.487
5.30300,-1.491
5.30307,-1.499
5.30313,-1.489
5.30320,-1.490
5.30327,-1.488
5.30333,-1.495
5.30340,-1.489
5.30347,-1.493
5.30353,-1.495
5.30360,-1.496
5.30367,-1.496
5.30373,-1.497
5.30380,-1.498
5.30387,-1.503
5.30393,-1.500
5.30400,-1.486
5.30407,-1.487
5.30413,-1.489
5.30420,-1.495
5.30427,-1.486
5.30433,-1.495
5.30440,-1.495
5.30447,-1.495
5.30453,-1.483
5.30460,-1.491
5.30467,-1.495
5.30473,-1.496
5.30480,-1.489
5.30487,-1.492
5.30493,-1.496
5.30500,-1.501
5.30507,-1.494
5.30513,-1.501
5.30520,-1.503
5.30527,-1.504
5.30533,-1.496
5.30540,-1.500
5.30547,-1.503
5.30553,-1.513
5.30560,-1.509
5.30567,-1.503
5.30573,-1.502
5.30580,-1.500
5.30587,-1.501
5.30593,-1.489
5.30600,-1.496
5.30607,-1.500
5.30613,-1.503
5.30620,-1.496
5.30627,-1.496
5.30633,-1.499
5.30640,-1.503
5.30647,-1.494
5.30653,-1.497
5.30660,-1.499
5.30667,-1.506
5.30673,-1.506
5.30680,-1.509
5.30687,-1.507
5.30693,-1.506
5.30700,-1.502
5.30707,-1.498
5.30713,-1.506
5.30720,-1.509
5.30727,-1.510
5.30733,-1.506
5.30740,-1.504
5.30747,-1.492
5.30753,-1.494
5.30760,-1.486
5.30767,-1.502
5.30773,-1.512
5.30780,-1.509
5.30787,-1.476
5.30793,-1.473
5.30800,-1.476
5.30807,-1.480
5.30813,-1.474
5.30820,-1.474
5.30827,-1.469
5.30833,-1.475
5.30840,-1.475
5.30847,-1.484
5.30853,-1.493
5.30860,-1.498
5.30867,-1.493
5.30873,-1.496
5.30880,-1.493
5.30887,-1.495
5.30893,-1.489
5.30900,-1.488
5.30907,-1.492
5.30913,-1.492
5.30920,-1.500
5.30927,-1.501
5.30933,-1.549
5.30940,-1.599
5.30947,-1.596
5.30953,-1.489
5.30960,-1.329
5.30967,-1.058
5.30973,-0.789
5.30980,-0.516
5.30987,-0.359
5.30993,-0.285
5.31000,-0.574
5.31007,-0.926
5.31013,-1.258
5.31020,-1.448
5.31027,-1.584
5.31033,-1.667
5.31040,-1.731
5.31047,-1.744
5.31053,-1.712
5.31060,-1.681
5.31067,-1.654
5.31073,-1.579
5.31080,-1.531
5.31087,-1.501
5.31093,-1.479
5.31100,-1.488
5.31107,-1.488
5.31113,-1.482
5.31120,-1.470
5.31127,-1.469
5.31133,-1.465
5.31140,-1.468
5.31147,-1.462
5.31153,-1.463
5.31160,-1.455
5.31167,-1.456
5.31173,-1.446
5.31180,-1.449
5.31187,-1.446
5.31193,-1.448
5.31200,-1.442
5.31207,-1.444
5.31213,-1.439
5.31220,-1.437
5.31227,-1.435
5.31233,-1.425
5.31240,-1.430
5.31247,-1.421
5.31253,-1.420
5.31260,-1.404
5.31267,-1.403
5.31273,-1.399
5.31280,-1.394
5.31287,-1.374
5.31293,-1.373
5.31300,-1.368
5.31307,-1.367
5.31313,-1.348
5.31320,-1.339
5.31327,-1.319
5.31333,-1.307
5.31340,-1.283
5.31347,-1.268
5.31353,-1.247
5.31360,-1.234
5.31367,-1.211
5.31373,-1.192
5.31380,-1.174
5.31387,-1.164
5.31393,-1.147
5.31400,-1.126
5.31407,-1.113
5.31413,-1.101
5.31420,-1.098
5.31427,-1.081
5.31433,-1.086
5.31440,-1.099
5.31447,-1.117
5.31453,-1.122
5.31460,-1.152
5.31467,-1.184
5.31473,-1.216
5.31480,-1.238
5.31487,-1.275
5.31493,-1.307
5.31500,-1.342
5.31507,-1.359
5.31513,-1.382
5.31520,-1.398
5.31527,-1.417
5.31533,-1.426
5.31540,-1.438
5.31547,-1.448
5.31553,-1.462
5.31560,-1.464
5.31567,-1.464
5.31573,-1.473
5.31580,-1.475
5.31587,-1.479
5.31593,-1.462
5.31600,-1.470
5.31607,-1.472
5.31613,-1.477
5.31620,-1.471
5.31627,-1.478
5.31633,-1.482
5.31640,-1.485
5.31647,-1.476
5.31653,-1.482
5.31660,-1.482
5.31667,-1.482
5.31673,-1.472
5.31680,-1.475
5.31687,-1.479
5.31693,-1.487
5.31700,-1.482
5.31707,-1.489
5.31713,-1.486
5.31720,-1.484
5.31727,-1.478
5.31733,-1.468
5.31740,-1.470
5.31747,-1.475
5.31753,-1.478
5.31760,-1.467
5.31767,-1.478
5.31773,-1.479
5.31780,-1.482
5.31787,-1.473
5.31793,-1.482
5.31800,-1.488
5.31807,-1.492
5.31813,-1.479
5.31820,-1.487
5.31827,-1.487
5.31833,-1.491
5.31840,-1.480
5.31847,-1.482
5.31853,-1.482
5.31860,-1.489
5.31867,-1.485
5.31873,-1.487
5.31880,-1.484
5.31887,-1.489
5.31893,-1.484
5.31900,-1.480
5.31907,-1.486
5.31913,-1.489
5.31920,-1.492
5.31927,-1.478
5.31933,-1.486
5.31940,-1.487
5.31947,-1.492
5.31953,-1.485
5.31960,-1.486
5.31967,-1.489
5.31973,-1.493
5.31980,-1.492
5.31987,-1.502
5.31993,-1.500
5.32000,-1.492
5.32007,-1.479
5.32013,-1.484
5.32020,-1.488
5.32027,-1.492
5.32033,-1.482
5.32040,-1.451
5.32047,-1.455
5.32053,-1.462
5.32060,-1.459
5.32067,-1.456
5.32073,-1.456
5.32080,-1.455
5.32087,-1.457
5.32093,-1.462
5.32100,-1.473
5.32107,-1.481
5.32113,-1.490
5.32120,-1.485
5.32127,-1.487
5.32133,-1.486
5.32140,-1.489
5.32147,-1.483
5.32153,-1.489
5.32160,-1.485
5.32167,-1.489
5.32173,-1.479
5.32180,-1.492
5.32187,-1.525
5.32193,-1.583
5.32200,-1.601
5.32207,-1.535
5.32213,-1.387
5.32220,-1.119
5.32227,-0.827
5.32233,-0.554
5.32240,-0.343
5.32247,-0.232
5.32253,-0.430
5.32260,-0.793
5.32267,-1.169
5.32273,-1.410
5.32280,-1.560
5.32287,-1.661
5.32293,-1.736
5.32300,-1.756
5.32307,-1.714
5.32313,-1.678
5.32320,-1.662
5.32327,-1.590
5.32333,-1.539
5.32340,-1.498
5.32347,-1.490
5.32353,-1.481
5.32360,-1.481
5.32367,-1.470
5.32373,-1.466
5.32380,-1.464
5.32387,-1.467
5.32393,-1.459
5.32400,-1.452
5.32407,-1.456
5.32413,-1.454
5.32420,-1.460
5.32427,-1.446
5.32433,-1.452
5.32440,-1.449
5.32447,-1.444
5.32453,-1.429
5.32460,-1.429
5.32467,-1.429
5.32473,-1.428
5.32480,-1.418
5.32487,-1.421
5.32493,-1.418
5.32500,-1.417
5.32507,-1.406
5.32513,-1.402
5.32520,-1.394
5.32527,-1.391
5.32533,-1.384
5.32540,-1.379
5.32547,-1.376
5.32553,-1.368
5.32560,-1.356
5.32567,-1.340
5.32573,-1.332
5.32580,-1.318
5.32587,-1.305
5.32593,-1.274
5.32600,-1.261
5.32607,-1.244
5.32613,-1.230
5.32620,-1.207
5.32627,-1.188
5.32633,-1.172
5.32640,-1.156
5.32647,-1.132
5.32653,-1.121
5.32660,-1.108
5.32667,-1.100
5.32673,-1.083
5.32680,-1.083
5.32687,-1.086
5.32693,-1.096
5.32700,-1.107
5.32707,-1.128
5.32713,-1.152
5.32720,-1.186
5.32727,-1.213
5.32733,-1.246
5.32740,-1.276
5.32747,-1.306
5.32753,-1.337
5.32760,-1.351
5.32767,-1.379
5.32773,-1.400
5.32780,-1.415
5.32787,-1.417
5.32793,-1.436
5.32800,-1.449
5.32807,-1.458
5.32813,-1.453
5.32820,-1.460
5.32827,-1.462
5.32833,-1.472
5.32840,-1.469
5.32847,-1.472
5.32853,-1.468
5.32860,-1.470
5.32867,-1.465
5.32873,-1.467
5.32880,-1.467
5.32887,-1.471
5.32893,-1.465
5.32900,-1.466
5.32907,-1.470
5.32913,-1.473
5.32920,-1.475
5.32927,-1.461
5.32933,-1.469
5.32940,-1.474
5.32947,-1.476
5.32953,-1.469
5.32960,-1.470
5.32967,-1.478
5.32973,-1.479
5.32980,-1.470
5.32987,-1.476
5.32993,-1.478
5.33000,-1.479
5.33007,-1.469
5.33013,-1.468
5.33020,-1.464
5.33027,-1.471
5.33033,-1.467
5.33040,-1.470
5.33047,-1.475
5.33053,-1.478
5.33060,-1.476
5.33067,-1.473
5.33073,-1.473
5.33080,-1.480
5.33087,-1.484
5.33093,-1.468
5.33100,-1.477
5.33107,-1.482
5.33113,-1.489
5.33120,-1.482
5.33127,-1.479
5.33133,-1.479
5.33140,-1.484
5.33147,-1.479
5.33153,-1.482
5.33160,-1.478
5.33167,-1.484
5.33173,-1.476
5.33180,-1.479
5.33187,-1.481
5.33193,-1.484
5.33200,-1.477
5.33207,-1.479
5.33213,-1.484
5.33220,-1.488
5.33227,-1.484
5.33233,-1.479
5.33240,-1.475
5.33247,-1.476
5.33253,-1.484
5.33260,-1.473
5.33267,-1.478
5.33273,-1.481
5.33280,-1.487
5.33287,-1.475
5.33293,-1.481
5.33300,-1.486
5.33307,-1.484
5.33313,-1.475
5.33320,-1.484
5.33327,-1.490
5.33333,-1.492
5.33340,-1.471
5.33347,-1.456
5.33353,-1.462
5.33360,-1.464
5.33367,-1.459
5.33373,-1.464
5.33380,-1.462
5.33387,-1.458
5.33393,-1.454
5.33400,-1.450
5.33407,-1.473
5.33413,-1.474
5.33420,-1.484
5.33427,-1.472
5.33433,-1.476
5.33440,-1.479
5.33447,-1.478
5.33453,-1.467
5.33460,-1.471
5.33467,-1.476
5.33473,-1.480
5.33480,-1.476
5.33487,-1.506
5.33493,-1.561
5.33500,-1.597
5.33507,-1.542
5.33513,-1.413
5.33520,-1.147
5.33527,-0.868
5.33533,-0.580
5.33540,-0.341
5.33547,-0.214
5.33553,-0.356
5.33560,-0.733
5.33567,-1.104
5.33573,-1.374
5.33580,-1.524
5.33587,-1.657
5.33593,-1.711
5.33600,-1.745
5.33607,-1.711
5.33613,-1.683
5.33620,-1.651
5.33627,-1.598
5.33633,-1.535
5.33640,-1.499
5.33647,-1.476
5.33653,-1.479
5.33660,-1.472
5.33667,-1.473
5.33673,-1.461
5.33680,-1.459
5.33687,-1.453
5.33693,-1.451
5.33700,-1.446
5.33707,-1.446
5.33713,-1.443
5.33720,-1.449
5.33727,-1.446
5.33733,-1.439
5.33740,-1.439
5.33747,-1.431
5.33753,-1.429
5.33760,-1.417
5.33767,-1.423
5.33773,-1.425
5.33780,-1.426
5.33787,-1.410
5.33793,-1.410
5.33800,-1.410
5.33807,-1.411
5.33813,-1.396
5.33820,-1.393
5.33827,-1.387
5.33833,-1.384
5.33840,-1.371
5.33847,-1.367
5.33853,-1.360
5.33860,-1.349
5.33867,-1.333
5.33873,-1.319
5.33880,-1.310
5.33887,-1.300
5.33893,-1.282
5.33900,-1.263
5.33907,-1.253
5.33913,-1.228
5.33920,-1.214
5.33927,-1.182
5.33933,-1.171
5.33940,-1.157
5.33947,-1.145
5.33953,-1.118
5.33960,-1.111
5.33967,-1.097
5.33973,-1.088
5.33980,-1.077
5.33987,-1.085
5.33993,-1.091
5.34000,-1.105
5.34007,-1.113
5.34013,-1.141
5.34020,-1.171
5.34027,-1.202
5.34033,-1.226
5.34040,-1.257
5.34047,-1.290
5.34053,-1.323
5.34060,-1.347
5.34067,-1.363
5.34073,-1.385
5.34080,-1.399
5.34087,-1.415
5.34093,-1.413
5.34100,-1.428
5.34107,-1.437
5.34113,-1.445
5.34120,-1.442
5.34127,-1.450
5.34133,-1.456
5.34140,-1.460
5.34147,-1.452
5.34153,-1.456
5.34160,-1.457
5.34167,-1.465
5.34173,-1.460
5.34180,-1.464
5.34187,-1.463
5.34193,-1.460
5.34200,-1.454
5.34207,-1.461
5.34213,-1.464
5.34220,-1.466
5.34227,-1.460
5.34233,-1.456
5.34240,-1.459
5.34247,-1.463
5.34253,-1.464
5.34260,-1.449
5.34267,-1.459
5.34273,-1.460
5.34280,-1.462
5.34287,-1.456
5.34293,-1.460
5.34300,-1.461
5.34307,-1.463
5.34313,-1.453
5.34320,-1.462
5.34327,-1.462
5.34333,-1.469
5.34340,-1.461
5.34347,-1.468
5.34353,-1.471
5.34360,-1.475
5.34367,-1.468
5.34373,-1.466
5.34380,-1.462
5.34387,-1.464
5.34393,-1.461
5.34400,-1.458
5.34407,-1.462
5.34413,-1.464
5.34420,-1.469
5.34427,-1.458
5.34433,-1.466
5.34440,-1.467
5.34447,-1.471
5.34453,-1.464
5.34460,-1.466
5.34467,-1.471
5.34473,-1.475
5.34480,-1.465
5.34487,-1.467
5.34493,-1.463
5.34500,-1.471
5.34507,-1.465
5.34513,-1.468
5.34520,-1.467
5.34527,-1.473
5.34533,-1.467
5.34540,-1.466
5.34547,-1.466
5.34553,-1.466
5.34560,-1.461
5.34567,-1.461
5.34573,-1.465
5.34580,-1.465
5.34587,-1.470
5.34593,-1.455
5.34600,-1.467
5.34607,-1.470
5.34613,-1.474
5.34620,-1.470
5.34627,-1.474
5.34633,-1.472
5.34640,-1.472
5.34647,-1.459
5.34653,-1.464
5.34660,-1.471
5.34667,-1.479
5.34673,-1.471
5.34680,-1.473
5.34687,-1.470
5.34693,-1.472
5.34700,-1.468
5.34707,-1.471
5.34713,-1.471
5.34720,-1.474
5.34727,-1.468
5.34733,-1.475
5.34740,-1.478
5.34747,-1.484
5.34753,-1.480
5.34760,-1.453
5.34767,-1.452
5.34773,-1.456
5.34780,-1.455
5.34787,-1.448
5.34793,-1.448
5.34800,-1.452
5.34807,-1.456
5.34813,-1.445
5.34820,-1.464
5.34827,-1.467
5.34833,-1.471
5.34840,-1.466
5.34847,-1.464
5.34853,-1.467
5.34860,-1.471
5.34867,-1.460
5.34873,-1.466
5.34880,-1.468
5.34887,-1.476
5.34893,-1.483
5.34900,-1.526
5.34907,-1.583
5.34913,-1.574
5.34920,-1.476
5.34927,-1.291
5.34933,-1.000
5.34940,-0.707
5.34947,-0.430
5.34953,-0.273
5.34960,-0.250
5.34967,-0.588
5.34973,-0.954
5.34980,-1.269
5.34987,-1.449
5.34993,-1.593
5.35000,-1.677
5.35007,-1.735
5.35013,-1.735
5.35020,-1.695
5.35027,-1.670
5.35033,-1.633
5.35040,-1.556
5.35047,-1.510
5.35053,-1.478
5.35060,-1.468
5.35067,-1.465
5.35073,-1.467
5.35080,-1.459
5.35087,-1.462
5.35093,-1.445
5.35100,-1.448
5.35107,-1.446
5.35113,-1.449
5.35120,-1.442
5.35127,-1.445
5.35133,-1.441
5.35140,-1.439
5.35147,-1.430
5.35153,-1.433
5.35160,-1.429
5.35167,-1.431
5.35173,-1.423
5.35180,-1.421
5.35187,-1.420
5.35193,-1.421
5.35200,-1.412
5.35207,-1.411
5.35213,-1.404
5.35220,-1.405
5.35227,-1.396
5.35233,-1.384
5.35240,-1.382
5.35247,-1.376
5.35253,-1.373
5.35260,-1.352
5.35267,-1.349
5.35273,-1.341
5.35280,-1.335
5.35287,-1.316
5.35293,-1.306
5.35300,-1.293
5.35307,-1.280
5.35313,-1.255
5.35320,-1.244
5.35327,-1.225
5.35333,-1.211
5.35340,-1.187
5.35347,-1.169
5.35353,-1.151
5.35360,-1.138
5.35367,-1.122
5.35373,-1.111
5.35380,-1.106
5.35387,-1.096
5.35393,-1.085
5.35400,-1.082
5.35407,-1.092
5.35413,-1.104
5.35420,-1.127
5.35427,-1.141
5.35433,-1.174
5.35440,-1.205
5.35447,-1.237
5.35453,-1.258
5.35460,-1.296
5.35467,-1.329
5.35473,-1.354
5.35480,-1.368
5.35487,-1.392
5.35493,-1.407
5.35500,-1.421
5.35507,-1.426
5.35513,-1.438
5.35520,-1.447
5.35527,-1.456
5.35533,-1.456
5.35540,-1.459
5.35547,-1.465
5.35553,-1.470
5.35560,-1.466
5.35567,-1.457
5.35573,-1.461
5.35580,-1.465
5.35587,-1.469
5.35593,-1.455
5.35600,-1.463
5.35607,-1.464
5.35613,-1.475
5.35620,-1.465
5.35627,-1.471
5.35633,-1.476
5.35640,-1.479
5.35647,-1.469
5.35653,-1.475
5.35660,-1.475
5.35667,-1.480
5.35673,-1.472
5.35680,-1.478
5.35687,-1.479
5.35693,-1.480
5.35700,-1.476
5.35707,-1.471
5.35713,-1.473
5.35720,-1.476
5.35727,-1.470
5.35733,-1.470
5.35740,-1.482
5.35747,-1.481
5.35753,-1.489
5.35760,-1.473
5.35767,-1.479
5.35773,-1.481
5.35780,-1.484
5.35787,-1.476
5.35793,-1.482
5.35800,-1.489
5.35807,-1.492
5.35813,-1.485
5.35820,-1.486
5.35827,-1.487
5.35833,-1.495
5.35840,-1.488
5.35847,-1.487
5.35853,-1.486
5.35860,-1.488
5.35867,-1.485
5.35873,-1.492
5.35880,-1.491
5.35887,-1.492
5.35893,-1.488
5.35900,-1.482
5.35907,-1.490
5.35913,-1.493
5.35920,-1.495
5.35927,-1.482
5.35933,-1.487
5.35940,-1.490
5.35947,-1.493
5.35953,-1.486
5.35960,-1.489
5.35967,-1.494
5.35973,-1.497
5.35980,-1.489
5.35987,-1.493
5.35993,-1.494
5.36000,-1.500
5.36007,-1.496
5.36013,-1.501
5.36020,-1.497
5.36027,-1.501
5.36033,-1.491
5.36040,-1.492
5.36047,-1.495
5.36053,-1.498
5.36060,-1.490
5.36067,-1.489
5.36073,-1.497
5.36080,-1.493
5.36087,-1.500
5.36093,-1.486
5.36100,-1.490
5.36107,-1.493
5.36113,-1.501
5.36120,-1.495
5.36127,-1.501
5.36133,-1.509
5.36140,-1.511
5.36147,-1.498
5.36153,-1.500
5.36160,-1.503
5.36167,-1.515
5.36173,-1.503
5.36180,-1.506
5.36187,-1.491
5.36193,-1.479
5.36200,-1.466
5.36207,-1.468
5.36213,-1.475
5.36220,-1.475
5.36227,-1.468
5.36233,-1.461
5.36240,-1.470
5.36247,-1.487
5.36253,-1.496
5.36260,-1.486
5.36267,-1.490
5.36273,-1.494
5.36280,-1.498
5.36287,-1.486
5.36293,-1.487
5.36300,-1.489
5.36307,-1.495
5.36313,-1.494
5.36320,-1.505
5.36327,-1.529
5.36333,-1.589
5.36340,-1.596
5.36347,-1.539
5.36353,-1.395
5.36360,-1.128
5.36367,-0.855
5.36373,-0.593
5.36380,-0.413
5.36387,-0.334
5.36393,-0.521
5.36400,-0.868
5.36407,-1.222
5.36413,-1.412
5.36420,-1.541
5.36427,-1.644
5.36433,-1.711
5.36440,-1.747
5.36447,-1.726
5.36453,-1.688
5.36460,-1.674
5.36467,-1.635
5.36473,-1.571
5.36480,-1.529
5.36487,-1.506
5.36493,-1.497
5.36500,-1.491
5.36507,-1.476
5.36513,-1.475
5.36520,-1.473
5.36527,-1.472
5.36533,-1.464
5.36540,-1.464
5.36547,-1.466
5.36553,-1.470
5.36560,-1.460
5.36567,-1.455
5.36573,-1.457
5.36580,-1.455
5.36587,-1.460
5.36593,-1.446
5.36600,-1.448
5.36607,-1.447
5.36613,-1.444
5.36620,-1.429
5.36627,-1.428
5.36633,-1.425
5.36640,-1.421
5.36647,-1.409
5.36653,-1.410
5.36660,-1.403
5.36667,-1.404
5.36673,-1.393
5.36680,-1.389
5.36687,-1.382
5.36693,-1.372
5.36700,-1.360
5.36707,-1.352
5.36713,-1.343
5.36720,-1.334
5.36727,-1.315
5.36733,-1.293
5.36740,-1.285
5.36747,-1.268
5.36753,-1.253
5.36760,-1.222
5.36767,-1.209
5.36773,-1.192
5.36780,-1.175
5.36787,-1.154
5.36793,-1.143
5.36800,-1.133
5.36807,-1.126
5.36813,-1.114
5.36820,-1.113
5.36827,-1.112
5.36833,-1.119
5.36840,-1.125
5.36847,-1.144
5.36853,-1.165
5.36860,-1.188
5.36867,-1.211
5.36873,-1.244
5.36880,-1.279
5.36887,-1.307
5.36893,-1.328
5.36900,-1.348
5.36907,-1.376
5.36913,-1.393
5.36920,-1.419
5.36927,-1.423
5.36933,-1.442
5.36940,-1.453
5.36947,-1.467
5.36953,-1.458
5.36960,-1.469
5.36967,-1.477
5.36973,-1.485
5.36980,-1.480
5.36987,-1.489
5.36993,-1.493
5.37000,-1.496
5.37007,-1.488
5.37013,-1.493
5.37020,-1.489
5.37027,-1.491
5.37033,-1.484
5.37040,-1.486
5.37047,-1.490
5.37053,-1.496
5.37060,-1.491
5.37067,-1.483
5.37073,-1.482
5.37080,-1.482
5.37087,-1.489
5.37093,-1.477
5.37100,-1.484
5.37107,-1.490
5.37113,-1.493
5.37120,-1.484
5.37127,-1.489
5.37133,-1.490
5.37140,-1.495
5.37147,-1.486
5.37153,-1.492
5.37160,-1.487
5.37167,-1.490
5.37173,-1.486
5.37180,-1.496
5.37187,-1.494
5.37193,-1.495
5.37200,-1.492
5.37207,-1.490
5.37213,-1.493
5.37220,-1.496
5.37227,-1.493
5.37233,-1.490
5.37240,-1.492
5.37247,-1.490
5.37253,-1.497
5.37260,-1.485
5.37267,-1.490
5.37273,-1.492
5.37280,-1.495
5.37287,-1.489
5.37293,-1.496
5.37300,-1.502
5.37307,-1.506
5.37313,-1.498
5.37320,-1.500
5.37327,-1.495
5.37333,-1.498
5.37340,-1.495
5.37347,-1.501
5.37353,-1.499
5.37360,-1.501
5.37367,-1.495
5.37373,-1.490
5.37380,-1.493
5.37387,-1.498
5.37393,-1.495
5.37400,-1.490
5.37407,-1.493
5.37413,-1.492
5.37420,-1.500
5.37427,-1.489
5.37433,-1.493
5.37440,-1.496
5.37447,-1.500
5.37453,-1.493
5.37460,-1.498
5.37467,-1.504
5.37473,-1.513
5.37480,-1.504
5.37487,-1.504
5.37493,-1.498
5.37500,-1.500
5.37507,-1.506
5.37513,-1.509
5.37520,-1.507
5.37527,-1.499
5.37533,-1.475
5.37540,-1.475
5.37547,-1.475
5.37553,-1.478
5.37560,-1.481
5.37567,-1.477
5.37573,-1.479
5.37580,-1.473
5.37587,-1.478
5.37593,-1.476
5.37600,-1.492
5.37607,-1.496
5.37613,-1.498
5.37620,-1.489
5.37627,-1.489
5.37633,-1.490
5.37640,-1.499
5.37647,-1.487
5.37653,-1.495
5.37660,-1.500
5.37667,-1.506
5.37673,-1.516
5.37680,-1.563
5.37687,-1.595
5.37693,-1.569
5.37700,-1.448
5.37707,-1.221
5.37713,-0.956
5.37720,-0.681
5.37727,-0.432
5.37733,-0.296
5.37740,-0.354
5.37747,-0.702
5.37753,-1.072
5.37760,-1.343
5.37767,-1.504
5.37773,-1.648
5.37780,-1.711
5.37787,-1.745
5.37793,-1.725
5.37800,-1.694
5.37807,-1.679
5.37813,-1.620
5.37820,-1.561
5.37827,-1.519
5.37833,-1.496
5.37840,-1.487
5.37847,-1.484
5.37853,-1.479
5.37860,-1.479
5.37867,-1.470
5.37873,-1.467
5.37880,-1.463
5.37887,-1.467
5.37893,-1.458
5.37900,-1.450
5.37907,-1.454
5.37913,-1.448
5.37920,-1.455
5.37927,-1.443
5.37933,-1.448
5.37940,-1.450
5.37947,-1.451
5.37953,-1.439
5.37960,-1.437
5.37967,-1.435
5.37973,-1.435
5.37980,-1.425
5.37987,-1.428
5.37993,-1.419
5.38000,-1.417
5.38007,-1.406
5.38013,-1.403
5.38020,-1.396
5.38027,-1.393
5.38033,-1.379
5.38040,-1.373
5.38047,-1.368
5.38053,-1.361
5.38060,-1.346
5.38067,-1.326
5.38073,-1.313
5.38080,-1.293
5.38087,-1.286
5.38093,-1.257
5.38100,-1.244
5.38107,-1.230
5.38113,-1.213
5.38120,-1.185
5.38127,-1.171
5.38133,-1.153
5.38140,-1.141
5.38147,-1.116
5.38153,-1.109
5.38160,-1.100
5.38167,-1.099
5.38173,-1.094
5.38180,-1.105
5.38187,-1.113
5.38193,-1.135
5.38200,-1.150
5.38207,-1.174
5.38213,-1.210
5.38220,-1.242
5.38227,-1.267
5.38233,-1.294
5.38240,-1.330
5.38247,-1.356
5.38253,-1.378
5.38260,-1.386
5.38267,-1.411
5.38273,-1.431
5.38280,-1.445
5.38287,-1.446
5.38293,-1.456
5.38300,-1.465
5.38307,-1.471
5.38313,-1.470
5.38320,-1.478
5.38327,-1.480
5.38333,-1.484
5.38340,-1.478
5.38347,-1.476
5.38353,-1.478
5.38360,-1.481
5.38367,-1.476
5.38373,-1.479
5.38380,-1.483
5.38387,-1.488
5.38393,-1.483
5.38400,-1.476
5.38407,-1.482
5.38413,-1.479
5.38420,-1.486
5.38427,-1.472
5.38433,-1.478
5.38440,-1.481
5.38447,-1.484
5.38453,-1.478
5.38460,-1.484
5.38467,-1.482
5.38473,-1.486
5.38480,-1.476
5.38487,-1.481
5.38493,-1.479
5.38500,-1.479
5.38507,-1.473
5.38513,-1.476
5.38520,-1.478
5.38527,-1.483
5.38533,-1.477
5.38540,-1.480
5.38547,-1.485
5.38553,-1.486
5.38560,-1.482
5.38567,-1.478
5.38573,-1.482
5.38580,-1.483
5.38587,-1.490
5.38593,-1.478
5.38600,-1.481
5.38607,-1.486
5.38613,-1.489
5.38620,-1.480
5.38627,-1.484
5.38633,-1.486
5.38640,-1.493
5.38647,-1.484
5.38653,-1.493
5.38660,-1.491
5.38667,-1.494
5.38673,-1.483
5.38680,-1.486
5.38687,-1.481
5.38693,-1.485
5.38700,-1.482
5.38707,-1.487
5.38713,-1.488
5.38720,-1.489
5.38727,-1.486
5.38733,-1.481
5.38740,-1.486
5.38747,-1.483
5.38753,-1.490
5.38760,-1.482
5.38767,-1.487
5.38773,-1.487
5.38780,-1.489
5.38787,-1.483
5.38793,-1.488
5.38800,-1.490
5.38807,-1.491
5.38813,-1.485
5.38820,-1.486
5.38827,-1.481
5.38833,-1.489
5.38840,-1.481
5.38847,-1.486
5.38853,-1.486
5.38860,-1.490
5.38867,-1.484
5.38873,-1.484
5.38880,-1.488
5.38887,-1.489
5.38893,-1.484
5.38900,-1.480
5.38907,-1.488
5.38913,-1.485
5.38920,-1.490
5.38927,-1.476
5.38933,-1.486
5.38940,-1.487
5.38947,-1.493
5.38953,-1.487
5.38960,-1.493
5.38967,-1.489
5.38973,-1.492
5.38980,-1.484
5.38987,-1.499
5.38993,-1.497
5.39000,-1.500
5.39007,-1.479
5.39013,-1.464
5.39020,-1.467
5.39027,-1.473
5.39033,-1.473
5.39040,-1.475
5.39047,-1.469
5.39053,-1.467
5.39060,-1.463
5.39067,-1.457
5.39073,-1.479
5.39080,-1.476
5.39087,-1.483
5.39093,-1.473
5.39100,-1.477
5.39107,-1.479
5.39113,-1.485
5.39120,-1.475
5.39127,-1.479
5.39133,-1.486
5.39140,-1.490
5.39147,-1.505
5.39153,-1.563
5.39160,-1.599
5.39167,-1.562
5.39173,-1.428
5.39180,-1.177
5.39187,-0.900
5.39193,-0.615
5.39200,-0.363
5.39207,-0.225
5.39213,-0.342
5.39220,-0.726
5.39227,-1.088
5.39233,-1.362
5.39240,-1.534
5.39247,-1.658
5.39253,-1.733
5.39260,-1.749
5.39267,-1.721
5.39273,-1.688
5.39280,-1.657
5.39287,-1.588
5.39293,-1.532
5.39300,-1.500
5.39307,-1.495
5.39313,-1.481
5.39320,-1.482
5.39327,-1.470
5.39333,-1.465
5.39340,-1.457
5.39347,-1.460
5.39353,-1.462
5.39360,-1.460
5.39367,-1.451
5.39373,-1.450
5.39380,-1.451
5.39387,-1.450
5.39393,-1.443
5.39400,-1.437
5.39407,-1.442
5.39413,-1.440
5.39420,-1.442
5.39427,-1.426
5.39433,-1.428
5.39440,-1.428
5.39447,-1.426
5.39453,-1.419
5.39460,-1.418
5.39467,-1.416
5.39473,-1.412
5.39480,-1.395
5.39487,-1.398
5.39493,-1.393
5.39500,-1.393
5.39507,-1.374
5.39513,-1.368
5.39520,-1.355
5.39527,-1.349
5.39533,-1.333
5.39540,-1.319
5.39547,-1.307
5.39553,-1.297
5.39560,-1.279
5.39567,-1.259
5.39573,-1.244
5.39580,-1.222
5.39587,-1.207
5.39593,-1.177
5.39600,-1.163
5.39607,-1.149
5.39613,-1.138
5.39620,-1.113
5.39627,-1.106
5.39633,-1.096
5.39640,-1.091
5.39647,-1.082
5.39653,-1.089
5.39660,-1.096
5.39667,-1.115
5.39673,-1.129
5.39680,-1.157
5.39687,-1.190
5.39693,-1.226
5.39700,-1.251
5.39707,-1.279
5.39713,-1.309
5.39720,-1.337
5.39727,-1.361
5.39733,-1.383
5.39740,-1.404
5.39747,-1.417
5.39753,-1.434
5.39760,-1.429
5.39767,-1.444
5.39773,-1.454
5.39780,-1.460
5.39787,-1.453
5.39793,-1.458
5.39800,-1.464
5.39807,-1.470
5.39813,-1.462
5.39820,-1.471
5.39827,-1.471
5.39833,-1.476
5.39840,-1.468
5.39847,-1.471
5.39853,-1.471
5.39860,-1.476
5.39867,-1.471
5.39873,-1.471
5.39880,-1.469
5.39887,-1.471
5.39893,-1.473
5.39900,-1.470
5.39907,-1.474
5.39913,-1.476
5.39920,-1.479
5.39927,-1.468
5.39933,-1.473
5.39940,-1.476
5.39947,-1.481
5.39953,-1.470
5.39960,-1.473
5.39967,-1.473
5.39973,-1.479
5.39980,-1.469
5.39987,-1.476
5.39993,-1.478
5.40000,-1.481
5.40007,-1.473
5.40013,-1.479
5.40020,-1.479
5.40027,-1.487
5.40033,-1.484
5.40040,-1.486
5.40047,-1.487
5.40053,-1.487
5.40060,-1.477
5.40067,-1.473
5.40073,-1.480
5.40080,-1.484
5.40087,-1.490
5.40093,-1.476
5.40100,-1.481
5.40107,-1.488
5.40113,-1.487
5.40120,-1.478
5.40127,-1.481
5.40133,-1.481
5.40140,-1.487
5.40147,-1.479
5.40153,-1.487
5.40160,-1.490
5.40167,-1.495
5.40173,-1.488
5.40180,-1.487
5.40187,-1.482
5.40193,-1.488
5.40200,-1.481
5.40207,-1.485
5.40213,-1.487
5.40220,-1.490
5.40227,-1.485
5.40233,-1.481
5.40240,-1.486
5.40247,-1.487
5.40253,-1.492
5.40260,-1.480
5.40267,-1.487
5.40273,-1.483
5.40280,-1.486
5.40287,-1.480
5.40293,-1.486
5.40300,-1.492
5.40307,-1.498
5.40313,-1.487
5.40320,-1.489
5.40327,-1.487
5.40333,-1.496
5.40340,-1.484
5.40347,-1.487
5.40353,-1.483
5.40360,-1.489
5.40367,-1.488
5.40373,-1.487
5.40380,-1.489
5.40387,-1.491
5.40393,-1.484
5.40400,-1.479
5.40407,-1.484
5.40413,-1.484
5.40420,-1.489
5.40427,-1.479
5.40433,-1.487
5.40440,-1.485
5.40447,-1.493
5.40453,-1.482
5.40460,-1.490
5.40467,-1.495
5.40473,-1.496
5.40480,-1.482
5.40487,-1.485
5.40493,-1.482
5.40500,-1.486
5.40507,-1.481
5.40513,-1.487
5.40520,-1.492
5.40527,-1.496
5.40533,-1.491
5.40540,-1.488
5.40547,-1.487
5.40553,-1.489
5.40560,-1.498
5.40567,-1.499
5.40573,-1.504
5.40580,-1.491
5.40587,-1.471
5.40593,-1.460
5.40600,-1.469
5.40607,-1.470
5.40613,-1.478
5.40620,-1.466
5.40627,-1.470
5.40633,-1.466
5.40640,-1.468
5.40647,-1.471
5.40653,-1.480
5.40660,-1.478
5.40667,-1.487
5.40673,-1.481
5.40680,-1.482
5.40687,-1.478
5.40693,-1.485
5.40700,-1.481
5.40707,-1.483
5.40713,-1.486
5.40720,-1.507
5.40727,-1.560
5.40733,-1.598
5.40740,-1.570
5.40747,-1.447
5.40753,-1.214
5.40760,-0.919
5.40767,-0.637
5.40773,-0.385
5.40780,-0.247
5.40787,-0.321
5.40793,-0.693
5.40800,-1.060
5.40807,-1.352
5.40813,-1.506
5.40820,-1.652
5.40827,-1.716
5.40833,-1.757
5.40840,-1.719
5.40847,-1.692
5.40853,-1.662
5.40860,-1.610
5.40867,-1.540
5.40873,-1.502
5.40880,-1.490
5.40887,-1.487
5.40893,-1.480
5.40900,-1.469
5.40907,-1.463
5.40913,-1.460
5.40920,-1.465
5.40927,-1.449
5.40933,-1.453
5.40940,-1.457
5.40947,-1.460
5.40953,-1.451
5.40960,-1.454
5.40967,-1.449
5.40973,-1.448
5.40980,-1.437
5.40987,-1.442
5.40993,-1.440
5.41000,-1.444
5.41007,-1.437
5.41013,-1.432
5.41020,-1.429
5.41027,-1.426
5.41033,-1.411
5.41040,-1.407
5.41047,-1.412
5.41053,-1.411
5.41060,-1.398
5.41067,-1.390
5.41073,-1.384
5.41080,-1.374
5.41087,-1.371
5.41093,-1.354
5.41100,-1.349
5.41107,-1.343
5.41113,-1.337
5.41120,-1.313
5.41127,-1.301
5.41133,-1.286
5.41140,-1.277
5.41147,-1.249
5.41153,-1.235
5.41160,-1.215
5.41167,-1.197
5.41173,-1.176
5.41180,-1.160
5.41187,-1.138
5.41193,-1.130
5.41200,-1.117
5.41207,-1.104
5.41213,-1.097
5.41220,-1.094
5.41227,-1.091
5.41233,-1.090
5.41240,-1.105
5.41247,-1.121
5.41253,-1.152
5.41260,-1.167
5.41267,-1.202
5.41273,-1.232
5.41280,-1.268
5.41287,-1.293
5.41293,-1.323
5.41300,-1.350
5.41307,-1.376
5.41313,-1.388
5.41320,-1.413
5.41327,-1.428
5.41333,-1.441
5.41340,-1.442
5.41347,-1.454
5.41353,-1.458
5.41360,-1.465
5.41367,-1.462
5.41373,-1.466
5.41380,-1.470
5.41387,-1.476
5.41393,-1.475
5.41400,-1.468
5.41407,-1.476
5.41413,-1.474
5.41420,-1.474
5.41427,-1.463
5.41433,-1.474
5.41440,-1.482
5.41447,-1.490
5.41453,-1.480
5.41460,-1.484
5.41467,-1.486
5.41473,-1.488
5.41480,-1.478
5.41487,-1.481
5.41493,-1.483
5.41500,-1.489
5.41507,-1.486
5.41513,-1.487
5.41520,-1.488
5.41527,-1.486
5.41533,-1.481
5.41540,-1.484
5.41547,-1.487
5.41553,-1.494
5.41560,-1.490
5.41567,-1.484
5.41573,-1.487
5.41580,-1.484
5.41587,-1.491
5.41593,-1.479
5.41600,-1.494
5.41607,-1.498
5.41613,-1.499
5.41620,-1.492
5.41627,-1.496
5.41633,-1.500
5.41640,-1.504
5.41647,-1.498
5.41653,-1.500
5.41660,-1.500
5.41667,-1.500
5.41673,-1.491
5.41680,-1.498
5.41687,-1.501
5.41693,-1.506
5.41700,-1.500
5.41707,-1.500
5.41713,-1.500
5.41720,-1.506
5.41727,-1.504
5.41733,-1.501
5.41740,-1.505
5.41747,-1.506
5.41753,-1.509
5.41760,-1.497
5.41767,-1.501
5.41773,-1.506
5.41780,-1.510
5.41787,-1.503
5.41793,-1.506
5.41800,-1.506
5.41807,-1.510
5.41813,-1.502
5.41820,-1.508
5.41827,-1.510
5.41833,-1.519
5.41840,-1.511
5.41847,-1.509
5.41853,-1.508
5.41860,-1.512
5.41867,-1.508
5.41873,-1.509
5.41880,-1.512
5.41887,-1.512
5.41893,-1.510
5.41900,-1.503
5.41907,-1.512
5.41913,-1.512
5.41920,-1.515
5.41927,-1.511
5.41933,-1.515
5.41940,-1.515
5.41947,-1.517
5.41953,-1.510
5.41960,-1.513
5.41967,-1.512
5.41973,-1.516
5.41980,-1.504
5.41987,-1.511
5.41993,-1.511
5.42000,-1.522
5.42007,-1.518
5.42013,-1.520
5.42020,-1.517
5.42027,-1.518
5.42033,-1.513
5.42040,-1.514
5.42047,-1.517
5.42053,-1.523
5.42060,-1.518
5.42067,-1.513
5.42073,-1.513
5.42080,-1.512
5.42087,-1.518
5.42093,-1.512
5.42100,-1.522
5.42107,-1.525
5.42113,-1.525
5.42120,-1.519
5.42127,-1.518
5.42133,-1.519
5.42140,-1.523
5.42147,-1.519
5.42153,-1.526
5.42160,-1.523
5.42167,-1.518
5.42173,-1.495
5.42180,-1.504
5.42187,-1.500
5.42193,-1.508
5.42200,-1.502
5.42207,-1.495
5.42213,-1.490
5.42220,-1.491
5.42227,-1.506
5.42233,-1.507
5.42240,-1.516
5.42247,-1.515
5.42253,-1.515
5.42260,-1.503
5.42267,-1.509
5.42273,-1.510
5.42280,-1.517
5.42287,-1.510
5.42293,-1.516
5.42300,-1.521
5.42307,-1.548
5.42313,-1.594
5.42320,-1.631
5.42327,-1.592
5.42333,-1.471
5.42340,-1.210
5.42347,-0.941
5.42353,-0.659
5.42360,-0.443
5.42367,-0.330
5.42373,-0.455
5.42380,-0.815
5.42387,-1.181
5.42393,-1.416
5.42400,-1.534
5.42407,-1.663
5.42413,-1.733
5.42420,-1.780
5.42427,-1.756
5.42433,-1.731
5.42440,-1.709
5.42447,-1.680
5.42453,-1.594
5.42460,-1.555
5.42467,-1.526
5.42473,-1.525
5.42480,-1.511
5.42487,-1.511
5.42493,-1.507
5.42500,-1.507
5.42507,-1.496
5.42513,-1.495
5.42520,-1.491
5.42527,-1.493
5.42533,-1.488
5.42540,-1.490
5.42547,-1.490
5.42553,-1.488
5.42560,-1.479
5.42567,-1.470
5.42573,-1.472
5.42580,-1.469
5.42587,-1.467
5.42593,-1.453
5.42600,-1.451
5.42607,-1.455
5.42613,-1.456
5.42620,-1.447
5.42627,-1.449
5.42633,-1.442
5.42640,-1.435
5.42647,-1.424
5.42653,-1.426
5.42660,-1.416
5.42667,-1.409
5.42673,-1.396
5.42680,-1.390
5.42687,-1.381
5.42693,-1.375
5.42700,-1.357
5.42707,-1.341
5.42713,-1.332
5.42720,-1.317
5.42727,-1.299
5.42733,-1.277
5.42740,-1.260
5.42747,-1.240
5.42753,-1.220
5.42760,-1.193
5.42767,-1.185
5.42773,-1.171
5.42780,-1.164
5.42787,-1.146
5.42793,-1.140
5.42800,-1.124
5.42807,-1.121
5.42813,-1.114
5.42820,-1.124
5.42827,-1.138
5.42833,-1.156
5.42840,-1.177
5.42847,-1.204
5.42853,-1.234
5.42860,-1.269
5.42867,-1.297
5.42873,-1.327
5.42880,-1.355
5.42887,-1.377
5.42893,-1.396
5.42900,-1.414
5.42907,-1.441
5.42913,-1.454
5.42920,-1.470
5.42927,-1.468
5.42933,-1.485
5.42940,-1.493
5.42947,-1.500
5.42953,-1.498
5.42960,-1.504
5.42967,-1.507
5.42973,-1.512
5.42980,-1.503
5.42987,-1.512
5.42993,-1.516
5.43000,-1.523
5.43007,-1.515
5.43013,-1.510
5.43020,-1.517
5.43027,-1.520
5.43033,-1.515
5.43040,-1.516
5.43047,-1.517
5.43053,-1.521
5.43060,-1.519
5.43067,-1.517
5.43073,-1.519
5.43080,-1.515
5.43087,-1.520
5.43093,-1.511
5.43100,-1.515
5.43107,-1.520
5.43113,-1.521
5.43120,-1.513
5.43127,-1.519
5.43133,-1.522
5.43140,-1.526
5.43147,-1.517
5.43153,-1.523
5.43160,-1.521
5.43167,-1.526
5.43173,-1.524
5.43180,-1.532
5.43187,-1.531
5.43193,-1.537
5.43200,-1.528
5.43207,-1.526
5.43213,-1.526
5.43220,-1.531
5.43227,-1.531
5.43233,-1.523
5.43240,-1.528
5.43247,-1.530
5.43253,-1.534
5.43260,-1.520
5.43267,-1.531
5.43273,-1.535
5.43280,-1.537
5.43287,-1.528
5.43293,-1.528
5.43300,-1.522
5.43307,-1.528
5.43313,-1.522
5.43320,-1.529
5.43327,-1.534
5.43333,-1.537
5.43340,-1.531
5.43347,-1.530
5.43353,-1.532
5.43360,-1.537
5.43367,-1.536
5.43373,-1.538
5.43380,-1.540
5.43387,-1.535
5.43393,-1.529
5.43400,-1.526
5.43407,-1.533
5.43413,-1.529
5.43420,-1.528
5.43427,-1.521
5.43433,-1.529
5.43440,-1.534
5.43447,-1.536
5.43453,-1.528
5.43460,-1.530
5.43467,-1.528
5.43473,-1.531
5.43480,-1.528
5.43487,-1.537
5.43493,-1.545
5.43500,-1.553
5.43507,-1.538
5.43513,-1.534
5.43520,-1.527
5.43527,-1.534
5.43533,-1.532
5.43540,-1.534
5.43547,-1.535
5.43553,-1.525
5.43560,-1.511
5.43567,-1.501
5.43573,-1.506
5.43580,-1.508
5.43587,-1.511
5.43593,-1.495
5.43600,-1.500
5.43607,-1.504
5.43613,-1.522
5.43620,-1.517
5.43627,-1.528
5.43633,-1.530
5.43640,-1.530
5.43647,-1.522
5.43653,-1.531
5.43660,-1.529
5.43667,-1.531
5.43673,-1.522
5.43680,-1.525
5.43687,-1.527
5.43693,-1.545
5.43700,-1.590
5.43707,-1.631
5.43713,-1.600
5.43720,-1.486
5.43727,-1.266
5.43733,-0.997
5.43740,-0.723
5.43747,-0.500
5.43753,-0.381
5.43760,-0.415
5.43767,-0.747
5.43773,-1.110
5.43780,-1.371
5.43787,-1.502
5.43793,-1.629
5.43800,-1.717
5.43807,-1.767
5.43813,-1.759
5.43820,-1.727
5.43827,-1.706
5.43833,-1.694
5.43840,-1.610
5.43847,-1.561
5.43853,-1.529
5.43860,-1.524
5.43867,-1.511
5.43873,-1.506
5.43880,-1.506
5.43887,-1.507
5.43893,-1.497
5.43900,-1.484
5.43907,-1.489
5.43913,-1.482
5.43920,-1.487
5.43927,-1.482
5.43933,-1.486
5.43940,-1.481
5.43947,-1.479
5.43953,-1.467
5.43960,-1.467
5.43967,-1.466
5.43973,-1.464
5.43980,-1.454
5.43987,-1.458
5.43993,-1.456
5.44000,-1.454
5.44007,-1.446
5.44013,-1.443
5.44020,-1.437
5.44027,-1.434
5.44033,-1.415
5.44040,-1.407
5.44047,-1.409
5.44053,-1.409
5.44060,-1.398
5.44067,-1.378
5.44073,-1.374
5.44080,-1.360
5.44087,-1.352
5.44093,-1.334
5.44100,-1.323
5.44107,-1.309
5.44113,-1.290
5.44120,-1.262
5.44127,-1.247
5.44133,-1.230
5.44140,-1.217
5.44147,-1.193
5.44153,-1.181
5.44160,-1.161
5.44167,-1.152
5.44173,-1.132
5.44180,-1.126
5.44187,-1.117
5.44193,-1.115
5.44200,-1.116
5.44207,-1.123
5.44213,-1.139
5.44220,-1.161
5.44227,-1.181
5.44233,-1.200
5.44240,-1.238
5.44247,-1.271
5.44253,-1.305
5.44260,-1.324
5.44267,-1.352
5.44273,-1.380
5.44280,-1.403
5.44287,-1.416
5.44293,-1.435
5.44300,-1.451
5.44307,-1.464
5.44313,-1.468
5.44320,-1.482
5.44327,-1.485
5.44333,-1.489
5.44340,-1.484
5.44347,-1.496
5.44353,-1.501
5.44360,-1.501
5.44367,-1.495
5.44373,-1.495
5.44380,-1.492
5.44387,-1.497
5.44393,-1.497
5.44400,-1.490
5.44407,-1.500
5.44413,-1.499
5.44420,-1.502
5.44427,-1.490
5.44433,-1.493
5.44440,-1.493
5.44447,-1.501
5.44453,-1.491
5.44460,-1.498
5.44467,-1.498
5.44473,-1.502
5.44480,-1.491
5.44487,-1.494
5.44493,-1.492
5.44500,-1.497
5.44507,-1.491
5.44513,-1.495
5.44520,-1.498
5.44527,-1.500
5.44533,-1.496
5.44540,-1.493
5.44547,-1.491
5.44553,-1.493
5.44560,-1.495
5.44567,-1.492
5.44573,-1.498
5.44580,-1.498
5.44587,-1.501
5.44593,-1.489
5.44600,-1.496
5.44607,-1.497
5.44613,-1.503
5.44620,-1.497
5.44627,-1.499
5.44633,-1.501
5.44640,-1.501
5.44647,-1.494
5.44653,-1.503
5.44660,-1.502
5.44667,-1.506
5.44673,-1.501
5.44680,-1.501
5.44687,-1.503
5.44693,-1.507
5.44700,-1.497
5.44707,-1.496
5.44713,-1.497
5.44720,-1.501
5.44727,-1.498
5.44733,-1.489
5.44740,-1.498
5.44747,-1.498
5.44753,-1.505
5.44760,-1.496
5.44767,-1.496
5.44773,-1.496
5.44780,-1.498
5.44787,-1.493
5.44793,-1.496
5.44800,-1.493
5.44807,-1.503
5.44813,-1.494
5.44820,-1.498
5.44827,-1.495
5.44833,-1.498
5.44840,-1.486
5.44847,-1.492
5.44853,-1.498
5.44860,-1.503
5.44867,-1.500
5.44873,-1.500
5.44880,-1.497
5.44887,-1.499
5.44893,-1.488
5.44900,-1.492
5.44907,-1.501
5.44913,-1.500
5.44920,-1.495
5.44927,-1.467
5.44933,-1.471
5.44940,-1.481
5.44947,-1.484
5.44953,-1.481
5.44960,-1.478
5.44967,-1.473
5.44973,-1.470
5.44980,-1.457
5.44987,-1.473
5.44993,-1.483
5.45000,-1.493
5.45007,-1.487
5.45013,-1.488
5.45020,-1.487
5.45027,-1.489
5.45033,-1.485
5.45040,-1.482
5.45047,-1.486
5.45053,-1.490
5.45060,-1.491
5.45067,-1.503
5.45073,-1.558
5.45080,-1.597
5.45087,-1.574
5.45093,-1.442
5.45100,-1.229
5.45107,-0.950
5.45113,-0.669
5.45120,-0.395
5.45127,-0.263
5.45133,-0.298
5.45140,-0.654
5.45147,-1.022
5.45153,-1.332
5.45160,-1.503
5.45167,-1.644
5.45173,-1.699
5.45180,-1.747
5.45187,-1.722
5.45193,-1.702
5.45200,-1.669
5.45207,-1.614
5.45213,-1.547
5.45220,-1.510
5.45227,-1.491
5.45233,-1.477
5.45240,-1.477
5.45247,-1.471
5.45253,-1.471
5.45260,-1.456
5.45267,-1.458
5.45273,-1.456
5.45280,-1.457
5.45287,-1.451
5.45293,-1.458
5.45300,-1.447
5.45307,-1.451
5.45313,-1.440
5.45320,-1.440
5.45327,-1.436
5.45333,-1.439
5.45340,-1.429
5.45347,-1.427
5.45353,-1.429
5.45360,-1.430
5.45367,-1.425
5.45373,-1.422
5.45380,-1.421
5.45387,-1.418
5.45393,-1.407
5.45400,-1.391
5.45407,-1.394
5.45413,-1.390
5.45420,-1.382
5.45427,-1.364
5.45433,-1.360
5.45440,-1.351
5.45447,-1.345
5.45453,-1.327
5.45460,-1.316
5.45467,-1.304
5.45473,-1.295
5.45480,-1.272
5.45487,-1.257
5.45493,-1.238
5.45500,-1.225
5.45507,-1.201
5.45513,-1.183
5.45520,-1.166
5.45527,-1.147
5.45533,-1.127
5.45540,-1.108
5.45547,-1.096
5.45553,-1.087
5.45560,-1.078
5.45567,-1.066
5.45573,-1.075
5.45580,-1.088
5.45587,-1.104
5.45593,-1.113
5.45600,-1.144
5.45607,-1.179
5.45613,-1.213
5.45620,-1.237
5.45627,-1.275
5.45633,-1.303
5.45640,-1.336
5.45647,-1.352
5.45653,-1.379
5.45660,-1.398
5.45667,-1.415
5.45673,-1.424
5.45680,-1.435
5.45687,-1.448
5.45693,-1.454
5.45700,-1.453
5.45707,-1.451
5.45713,-1.462
5.45720,-1.466
5.45727,-1.466
5.45733,-1.460
5.45740,-1.467
5.45747,-1.467
5.45753,-1.470
5.45760,-1.459
5.45767,-1.465
5.45773,-1.472
5.45780,-1.472
5.45787,-1.462
5.45793,-1.466
5.45800,-1.466
5.45807,-1.471
5.45813,-1.465
5.45820,-1.470
5.45827,-1.470
5.45833,-1.471
5.45840,-1.468
5.45847,-1.470
5.45853,-1.474
5.45860,-1.478
5.45867,-1.469
5.45873,-1.468
5.45880,-1.471
5.45887,-1.476
5.45893,-1.475
5.45900,-1.467
5.45907,-1.471
5.45913,-1.468
5.45920,-1.467
5.45927,-1.459
5.45933,-1.467
5.45940,-1.470
5.45947,-1.475
5.45953,-1.468
5.45960,-1.475
5.45967,-1.476
5.45973,-1.480
5.45980,-1.471
5.45987,-1.478
5.45993,-1.477
5.46000,-1.481
5.46007,-1.476
5.46013,-1.475
5.46020,-1.475
5.46027,-1.479
5.46033,-1.476
5.46040,-1.475
5.46047,-1.480
5.46053,-1.481
5.46060,-1.478
5.46067,-1.471
5.46073,-1.483
5.46080,-1.484
5.46087,-1.480
5.46093,-1.468
5.46100,-1.474
5.46107,-1.477
5.46113,-1.479
5.46120,-1.471
5.46127,-1.481
5.46133,-1.484
5.46140,-1.489
5.46147,-1.480
5.46153,-1.476
5.46160,-1.478
5.46167,-1.481
5.46173,-1.478
5.46180,-1.482
5.46187,-1.479
5.46193,-1.484
5.46200,-1.479
5.46207,-1.478
5.46213,-1.480
5.46220,-1.477
5.46227,-1.475
5.46233,-1.468
5.46240,-1.476
5.46247,-1.478
5.46253,-1.485
5.46260,-1.476
5.46267,-1.479
5.46273,-1.486
5.46280,-1.488
5.46287,-1.470
5.46293,-1.474
5.46300,-1.470
5.46307,-1.481
5.46313,-1.474
5.46320,-1.482
5.46327,-1.477
5.46333,-1.484
5.46340,-1.482
5.46347,-1.491
5.46353,-1.489
5.46360,-1.482
5.46367,-1.478
5.46373,-1.480
5.46380,-1.487
5.46387,-1.492
5.46393,-1.475
5.46400,-1.454
5.46407,-1.458
5.46413,-1.457
5.46420,-1.460
5.46427,-1.453
5.46433,-1.451
5.46440,-1.453
5.46447,-1.454
5.46453,-1.456
5.46460,-1.474
5.46467,-1.473
5.46473,-1.474
5.46480,-1.467
5.46487,-1.472
5.46493,-1.470
5.46500,-1.474
5.46507,-1.465
5.46513,-1.472
5.46520,-1.477
5.46527,-1.481
5.46533,-1.492
5.46540,-1.534
5.46547,-1.589
5.46553,-1.583
5.46560,-1.478
5.46567,-1.287
5.46573,-1.000
5.46580,-0.717
5.46587,-0.441
5.46593,-0.275
5.46600,-0.239
5.46607,-0.576
5.46613,-0.940
5.46620,-1.264
5.46627,-1.453
5.46633,-1.599
5.46640,-1.676
5.46647,-1.733
5.46653,-1.735
5.46660,-1.698
5.46667,-1.675
5.46673,-1.629
5.46680,-1.558
5.46687,-1.509
5.46693,-1.482
5.46700,-1.473
5.46707,-1.469
5.46713,-1.468
5.46720,-1.464
5.46727,-1.461
5.46733,-1.452
5.46740,-1.454
5.46747,-1.444
5.46753,-1.448
5.46760,-1.437
5.46767,-1.435
5.46773,-1.435
5.46780,-1.437
5.46787,-1.433
5.46793,-1.439
5.46800,-1.439
5.46807,-1.440
5.46813,-1.429
5.46820,-1.427
5.46827,-1.424
5.46833,-1.421
5.46840,-1.410
5.46847,-1.406
5.46853,-1.407
5.46860,-1.406
5.46867,-1.397
5.46873,-1.390
5.46880,-1.386
5.46887,-1.377
5.46893,-1.369
5.46900,-1.354
5.46907,-1.351
5.46913,-1.341
5.46920,-1.336
5.46927,-1.310
5.46933,-1.301
5.46940,-1.292
5.46947,-1.279
5.46953,-1.253
5.46960,-1.240
5.46967,-1.219
5.46973,-1.205
5.46980,-1.180
5.46987,-1.168
5.46993,-1.153
5.47000,-1.132
5.47007,-1.110
5.47013,-1.099
5.47020,-1.090
5.47027,-1.087
5.47033,-1.077
5.47040,-1.078
5.47047,-1.084
5.47053,-1.094
5.47060,-1.111
5.47067,-1.132
5.47073,-1.167
5.47080,-1.197
5.47087,-1.233
5.47093,-1.255
5.47100,-1.285
5.47107,-1.318
5.47113,-1.343
5.47120,-1.356
5.47127,-1.382
5.47133,-1.403
5.47140,-1.419
5.47147,-1.419
5.47153,-1.433
5.47160,-1.445
5.47167,-1.456
5.47173,-1.457
5.47180,-1.463
5.47187,-1.464
5.47193,-1.465
5.47200,-1.464
5.47207,-1.465
5.47213,-1.467
5.47220,-1.469
5.47227,-1.468
5.47233,-1.460
5.47240,-1.469
5.47247,-1.475
5.47253,-1.471
5.47260,-1.466
5.47267,-1.473
5.47273,-1.478
5.47280,-1.479
5.47287,-1.472
5.47293,-1.473
5.47300,-1.473
5.47307,-1.476
5.47313,-1.467
5.47320,-1.474
5.47327,-1.474
5.47333,-1.479
5.47340,-1.477
5.47347,-1.476
5.47353,-1.479
5.47360,-1.485
5.47367,-1.477
5.47373,-1.470
5.47380,-1.473
5.47387,-1.476
5.47393,-1.479
5.47400,-1.471
5.47407,-1.478
5.47413,-1.481
5.47420,-1.484
5.47427,-1.476
5.47433,-1.483
5.47440,-1.486
5.47447,-1.486
5.47453,-1.475
5.47460,-1.479
5.47467,-1.480
5.47473,-1.488
5.47480,-1.483
5.47487,-1.487
5.47493,-1.486
5.47500,-1.489
5.47507,-1.478
5.47513,-1.483
5.47520,-1.486
5.47527,-1.489
5.47533,-1.487
5.47540,-1.484
5.47547,-1.487
5.47553,-1.493
5.47560,-1.492
5.47567,-1.478
5.47573,-1.487
5.47580,-1.482
5.47587,-1.490
5.47593,-1.479
5.47600,-1.487
5.47607,-1.490
5.47613,-1.491
5.47620,-1.481
5.47627,-1.484
5.47633,-1.484
5.47640,-1.493
5.47647,-1.482
5.47653,-1.483
5.47660,-1.483
5.47667,-1.492
5.47673,-1.486
5.47680,-1.486
5.47687,-1.489
5.47693,-1.497
5.47700,-1.497
5.47707,-1.493
5.47713,-1.497
5.47720,-1.492
5.47727,-1.487
5.47733,-1.479
5.47740,-1.495
5.47747,-1.501
5.47753,-1.503
5.47760,-1.481
5.47767,-1.470
5.47773,-1.477
5.47780,-1.473
5.47787,-1.469
5.47793,-1.469
5.47800,-1.467
5.47807,-1.465
5.47813,-1.468
5.47820,-1.486
5.47827,-1.487
5.47833,-1.490
5.47840,-1.485
5.47847,-1.476
5.47853,-1.476
5.47860,-1.482
5.47867,-1.482
5.47873,-1.482
5.47880,-1.487
5.47887,-1.495
5.47893,-1.496
5.47900,-1.492
5.47907,-1.542
5.47913,-1.595
5.47920,-1.594
5.47927,-1.490
5.47933,-1.329
5.47940,-1.045
5.47947,-0.758
5.47953,-0.485
5.47960,-0.328
5.47967,-0.253
5.47973,-0.574
5.47980,-0.933
5.47987,-1.268
5.47993,-1.451
5.48000,-1.595
5.48007,-1.680
5.48013,-1.756
5.48020,-1.763
5.48027,-1.720
5.48033,-1.689
5.48040,-1.658
5.48047,-1.589
5.48053,-1.539
5.48060,-1.501
5.48067,-1.482
5.48073,-1.484
5.48080,-1.482
5.48087,-1.474
5.48093,-1.463
5.48100,-1.465
5.48107,-1.465
5.48113,-1.465
5.48120,-1.454
5.48127,-1.455
5.48133,-1.451
5.48140,-1.456
5.48147,-1.445
5.48153,-1.445
5.48160,-1.451
5.48167,-1.449
5.48173,-1.446
5.48180,-1.444
5.48187,-1.440
5.48193,-1.444
5.48200,-1.438
5.48207,-1.426
5.48213,-1.423
5.48220,-1.411
5.48227,-1.404
5.48233,-1.392
5.48240,-1.404
5.48247,-1.400
5.48253,-1.390
5.48260,-1.374
5.48267,-1.369
5.48273,-1.364
5.48280,-1.352
5.48287,-1.333
5.48293,-1.326
5.48300,-1.317
5.48307,-1.310
5.48313,-1.293
5.48320,-1.280
5.48327,-1.260
5.48333,-1.241
5.48340,-1.216
5.48347,-1.191
5.48353,-1.172
5.48360,-1.161
5.48367,-1.141
5.48373,-1.130
5.48380,-1.121
5.48387,-1.113
5.48393,-1.105
5.48400,-1.088
5.48407,-1.091
5.48413,-1.099
5.48420,-1.121
5.48427,-1.136
5.48433,-1.162
5.48440,-1.196
5.48447,-1.228
5.48453,-1.254
5.48460,-1.292
5.48467,-1.329
5.48473,-1.359
5.48480,-1.380
5.48487,-1.400
5.48493,-1.413
5.48500,-1.429
5.48507,-1.433
5.48513,-1.443
5.48520,-1.460
5.48527,-1.474
5.48533,-1.472
5.48540,-1.471
5.48547,-1.474
5.48553,-1.478
5.48560,-1.481
5.48567,-1.472
5.48573,-1.482
5.48580,-1.487
5.48587,-1.490
5.48593,-1.478
5.48600,-1.487
5.48607,-1.494
5.48613,-1.500
5.48620,-1.493
5.48627,-1.494
5.48633,-1.487
5.48640,-1.486
5.48647,-1.478
5.48653,-1.489
5.48660,-1.490
5.48667,-1.492
5.48673,-1.487
5.48680,-1.492
5.48687,-1.491
5.48693,-1.496
5.48700,-1.488
5.48707,-1.484
5.48713,-1.487
5.48720,-1.488
5.48727,-1.489
5.48733,-1.483
5.48740,-1.495
5.48747,-1.495
5.48753,-1.493
5.48760,-1.484
5.48767,-1.484
5.48773,-1.487
5.48780,-1.493
5.48787,-1.490
5.48793,-1.495
5.48800,-1.497
5.48807,-1.500
5.48813,-1.487
5.48820,-1.490
5.48827,-1.493
5.48833,-1.498
5.48840,-1.494
5.48847,-1.496
5.48853,-1.496
5.48860,-1.499
5.48867,-1.495
5.48873,-1.492
5.48880,-1.494
5.48887,-1.497
5.48893,-1.500
5.48900,-1.492
5.48907,-1.497
5.48913,-1.502
5.48920,-1.503
5.48927,-1.491
5.48933,-1.493
5.48940,-1.494
5.48947,-1.495
5.48953,-1.490
5.48960,-1.496
5.48967,-1.496
5.48973,-1.500
5.48980,-1.496
5.48987,-1.502
5.48993,-1.506
5.49000,-1.506
5.49007,-1.500
5.49013,-1.505
5.49020,-1.500
5.49027,-1.514
5.49033,-1.511
5.49040,-1.510
5.49047,-1.503
5.49053,-1.479
5.49060,-1.482
5.49067,-1.476
5.49073,-1.483
5.49080,-1.490
5.49087,-1.485
5.49093,-1.470
5.49100,-1.473
5.49107,-1.476
5.49113,-1.492
5.49120,-1.492
5.49127,-1.498
5.49133,-1.496
5.49140,-1.498
5.49147,-1.494
5.49153,-1.500
5.49160,-1.497
5.49167,-1.503
5.49173,-1.498
5.49180,-1.500
5.49187,-1.499
5.49193,-1.523
5.49200,-1.569
5.49207,-1.607
5.49213,-1.578
5.49220,-1.457
5.49227,-1.221
5.49233,-0.939
5.49240,-0.655
5.49247,-0.425
5.49253,-0.310
5.49260,-0.398
5.49267,-0.745
5.49273,-1.109
5.49280,-1.370
5.49287,-1.504
5.49293,-1.641
5.49300,-1.714
5.49307,-1.768
5.49313,-1.747
5.49320,-1.715
5.49327,-1.686
5.49333,-1.653
5.49340,-1.577
5.49347,-1.539
5.49353,-1.507
5.49360,-1.504
5.49367,-1.493
5.49373,-1.487
5.49380,-1.487
5.49387,-1.481
5.49393,-1.475
5.49400,-1.455
5.49407,-1.462
5.49413,-1.465
5.49420,-1.469
5.49427,-1.459
5.49433,-1.461
5.49440,-1.464
5.49447,-1.461
5.49453,-1.446
5.49460,-1.449
5.49467,-1.446
5.49473,-1.451
5.49480,-1.443
5.49487,-1.439
5.49493,-1.439
5.49500,-1.437
5.49507,-1.428
5.49513,-1.428
5.49520,-1.420
5.49527,-1.413
5.49533,-1.403
5.49540,-1.398
5.49547,-1.392
5.49553,-1.384
5.49560,-1.373
5.49567,-1.356
5.49573,-1.349
5.49580,-1.344
5.49587,-1.331
5.49593,-1.307
5.49600,-1.297
5.49607,-1.287
5.49613,-1.271
5.49620,-1.248
5.49627,-1.232
5.49633,-1.218
5.49640,-1.196
5.49647,-1.172
5.49653,-1.159
5.49660,-1.142
5.49667,-1.131
5.49673,-1.116
5.49680,-1.106
5.49687,-1.107
5.49693,-1.109
5.49700,-1.113
5.49707,-1.122
5.49713,-1.147
5.49720,-1.172
5.49727,-1.205
5.49733,-1.226
5.49740,-1.258
5.49747,-1.290
5.49753,-1.322
5.49760,-1.337
5.49767,-1.368
5.49773,-1.393
5.49780,-1.417
5.49787,-1.426
5.49793,-1.449
5.49800,-1.456
5.49807,-1.468
5.49813,-1.465
5.49820,-1.478
5.49827,-1.480
5.49833,-1.486
5.49840,-1.490
5.49847,-1.495
5.49853,-1.493
5.49860,-1.495
5.49867,-1.493
5.49873,-1.491
5.49880,-1.492
5.49887,-1.492
5.49893,-1.503
5.49900,-1.489
5.49907,-1.489
5.49913,-1.492
5.49920,-1.497
5.49927,-1.489
5.49933,-1.492
5.49940,-1.495
5.49947,-1.497
5.49953,-1.487
5.49960,-1.498
5.49967,-1.495
5.49973,-1.502
5.49980,-1.496
5.49987,-1.498
5.49993,-1.496
5.50000,-1.500
5.50007,-1.498
5.50013,-1.498
5.50020,-1.495
5.50027,-1.503
5.50033,-1.500
5.50040,-1.491
5.50047,-1.493
5.50053,-1.497
5.50060,-1.501
5.50067,-1.498
5.50073,-1.501
5.50080,-1.500
5.50087,-1.499
5.50093,-1.492
5.50100,-1.495
5.50107,-1.498
5.50113,-1.502
5.50120,-1.495
5.50127,-1.501
5.50133,-1.501
5.50140,-1.509
5.50147,-1.505
5.50153,-1.506
5.50160,-1.504
5.50167,-1.507
5.50173,-1.505
5.50180,-1.506
5.50187,-1.505
5.50193,-1.510
5.50200,-1.507
5.50207,-1.504
5.50213,-1.508
5.50220,-1.504
5.50227,-1.500
5.50233,-1.490
5.50240,-1.502
5.50247,-1.509
5.50253,-1.511
5.50260,-1.501
5.50267,-1.501
5.50273,-1.502
5.50280,-1.504
5.50287,-1.499
5.50293,-1.504
5.50300,-1.502
5.50307,-1.508
5.50313,-1.504
5.50320,-1.503
5.50327,-1.504
5.50333,-1.508
5.50340,-1.503
5.50347,-1.505
5.50353,-1.508
5.50360,-1.509
5.50367,-1.500
5.50373,-1.493
5.50380,-1.501
5.50387,-1.504
5.50393,-1.503
5.50400,-1.498
5.50407,-1.503
5.50413,-1.505
5.50420,-1.503
5.50427,-1.507
5.50433,-1.511
5.50440,-1.515
5.50447,-1.506
5.50453,-1.476
5.50460,-1.481
5.50467,-1.479
5.50473,-1.489
5.50480,-1.487
5.50487,-1.488
5.50493,-1.482
5.50500,-1.487
5.50507,-1.477
5.50513,-1.494
5.50520,-1.498
5.50527,-1.505
5.50533,-1.497
5.50540,-1.490
5.50547,-1.496
5.50553,-1.498
5.50560,-1.496
5.50567,-1.484
5.50573,-1.496
5.50580,-1.501
5.50587,-1.513
5.50593,-1.534
5.50600,-1.595
5.50607,-1.611
5.50613,-1.531
5.50620,-1.371
5.50627,-1.090
5.50633,-0.804
5.50640,-0.535
5.50647,-0.342
5.50653,-0.244
5.50660,-0.523
5.50667,-0.889
5.50673,-1.233
5.50680,-1.442
5.50687,-1.586
5.50693,-1.681
5.50700,-1.749
5.50707,-1.756
5.50713,-1.722
5.50720,-1.697
5.50727,-1.669
5.50733,-1.582
5.50740,-1.539
5.50747,-1.507
5.50753,-1.504
5.50760,-1.492
5.50767,-1.489
5.50773,-1.486
5.50780,-1.479
5.50787,-1.465
5.50793,-1.468
5.50800,-1.467
5.50807,-1.473
5.50813,-1.464
5.50820,-1.464
5.50827,-1.465
5.50833,-1.462
5.50840,-1.455
5.50847,-1.451
5.50853,-1.453
5.50860,-1.458
5.50867,-1.451
5.50873,-1.445
5.50880,-1.448
5.50887,-1.441
5.50893,-1.439
5.50900,-1.427
5.50907,-1.429
5.50913,-1.424
5.50920,-1.420
5.50927,-1.404
5.50933,-1.399
5.50940,-1.394
5.50947,-1.393
5.50953,-1.379
5.50960,-1.374
5.50967,-1.370
5.50973,-1.355
5.50980,-1.334
5.50987,-1.329
5.50993,-1.315
5.51000,-1.302
5.51007,-1.279
5.51013,-1.262
5.51020,-1.241
5.51027,-1.224
5.51033,-1.204
5.51040,-1.182
5.51047,-1.172
5.51053,-1.157
5.51060,-1.139
5.51067,-1.120
5.51073,-1.109
5.51080,-1.103
5.51087,-1.103
5.51093,-1.094
5.51100,-1.108
5.51107,-1.122
5.51113,-1.149
5.51120,-1.166
5.51127,-1.204
5.51133,-1.229
5.51140,-1.258
5.51147,-1.282
5.51153,-1.308
5.51160,-1.337
5.51167,-1.370
5.51173,-1.390
5.51180,-1.410
5.51187,-1.428
5.51193,-1.444
5.51200,-1.448
5.51207,-1.453
5.51213,-1.461
5.51220,-1.467
5.51227,-1.471
5.51233,-1.467
5.51240,-1.475
5.51247,-1.482
5.51253,-1.489
5.51260,-1.479
5.51267,-1.481
5.51273,-1.484
5.51280,-1.489
5.51287,-1.485
5.51293,-1.492
5.51300,-1.485
5.51307,-1.490
5.51313,-1.484
5.51320,-1.491
5.51327,-1.490
5.51333,-1.495
5.51340,-1.492
5.51347,-1.491
5.51353,-1.487
5.51360,-1.483
5.51367,-1.484
5.51373,-1.482
5.51380,-1.488
5.51387,-1.489
5.51393,-1.490
5.51400,-1.478
5.51407,-1.482
5.51413,-1.484
5.51420,-1.491
5.51427,-1.479
5.51433,-1.486
5.51440,-1.489
5.51447,-1.495
5.51453,-1.489
5.51460,-1.495
5.51467,-1.493
5.51473,-1.500
5.51480,-1.495
5.51487,-1.498
5.51493,-1.498
5.51500,-1.503
5.51507,-1.489
5.51513,-1.492
5.51520,-1.495
5.51527,-1.495
5.51533,-1.487
5.51540,-1.484
5.51547,-1.490
5.51553,-1.491
5.51560,-1.492
5.51567,-1.486
5.51573,-1.495
5.51580,-1.499
5.51587,-1.500
5.51593,-1.490
5.51600,-1.492
5.51607,-1.494
5.51613,-1.502
5.51620,-1.498
5.51627,-1.503
5.51633,-1.501
5.51640,-1.502
5.51647,-1.493
5.51653,-1.495
5.51660,-1.493
5.51667,-1.494
5.51673,-1.490
5.51680,-1.491
5.51687,-1.493
5.51693,-1.498
5.51700,-1.493
5.51707,-1.488
5.51713,-1.492
5.51720,-1.493
5.51727,-1.494
5.51733,-1.485
5.51740,-1.490
5.51747,-1.493
5.51753,-1.497
5.51760,-1.488
5.51767,-1.495
5.51773,-1.495
5.51780,-1.498
5.51787,-1.493
5.51793,-1.495
5.51800,-1.495
5.51807,-1.496
5.51813,-1.499
5.51820,-1.507
5.51827,-1.507
5.51833,-1.509
5.51840,-1.497
5.51847,-1.492
5.51853,-1.489
5.51860,-1.495
5.51867,-1.490
5.51873,-1.487
5.51880,-1.494
5.51887,-1.492
5.51893,-1.510
5.51900,-1.492
5.51907,-1.506
5.51913,-1.499
5.51920,-1.483
5.51927,-1.474
5.51933,-1.482
5.51940,-1.486
5.51947,-1.485
5.51953,-1.471
5.51960,-1.472
5.51967,-1.468
5.51973,-1.470
5.51980,-1.479
5.51987,-1.484
5.51993,-1.488
5.52000,-1.492
5.52007,-1.482
5.52013,-1.482
5.52020,-1.486
5.52027,-1.492
5.52033,-1.492
5.52040,-1.487
5.52047,-1.494
5.52053,-1.498
5.52060,-1.524
5.52067,-1.566
5.52073,-1.598
5.52080,-1.544
5.52087,-1.408
5.52093,-1.133
5.52100,-0.859
5.52107,-0.590
5.52113,-0.377
5.52120,-0.248
5.52127,-0.423
5.52133,-0.792
5.52140,-1.151
5.52147,-1.395
5.52153,-1.542
5.52160,-1.666
5.52167,-1.745
5.52173,-1.757
5.52180,-1.724
5.52187,-1.694
5.52193,-1.675
5.52200,-1.606
5.52207,-1.531
5.52213,-1.497
5.52220,-1.482
5.52227,-1.481
5.52233,-1.467
5.52240,-1.471
5.52247,-1.470
5.52253,-1.466
5.52260,-1.454
5.52267,-1.460
5.52273,-1.459
5.52280,-1.464
5.52287,-1.456
5.52293,-1.457
5.52300,-1.453
5.52307,-1.451
5.52313,-1.439
5.52320,-1.440
5.52327,-1.439
5.52333,-1.440
5.52340,-1.432
5.52347,-1.428
5.52353,-1.426
5.52360,-1.429
5.52367,-1.419
5.52373,-1.411
5.52380,-1.414
5.52387,-1.407
5.52393,-1.401
5.52400,-1.387
5.52407,-1.391
5.52413,-1.387
5.52420,-1.382
5.52427,-1.364
5.52433,-1.357
5.52440,-1.346
5.52447,-1.337
5.52453,-1.317
5.52460,-1.311
5.52467,-1.294
5.52473,-1.279
5.52480,-1.258
5.52487,-1.240
5.52493,-1.221
5.52500,-1.203
5.52507,-1.179
5.52513,-1.160
5.52520,-1.146
5.52527,-1.137
5.52533,-1.120
5.52540,-1.099
5.52547,-1.097
5.52553,-1.093
5.52560,-1.095
5.52567,-1.086
5.52573,-1.099
5.52580,-1.116
5.52587,-1.140
5.52593,-1.159
5.52600,-1.191
5.52607,-1.225
5.52613,-1.260
5.52620,-1.283
5.52627,-1.315
5.52633,-1.340
5.52640,-1.369
5.52647,-1.386
5.52653,-1.408
5.52660,-1.420
5.52667,-1.434
5.52673,-1.439
5.52680,-1.450
5.52687,-1.459
5.52693,-1.463
5.52700,-1.465
5.52707,-1.462
5.52713,-1.470
5.52720,-1.468
5.52727,-1.473
5.52733,-1.465
5.52740,-1.471
5.52747,-1.475
5.52753,-1.471
5.52760,-1.464
5.52767,-1.467
5.52773,-1.468
5.52780,-1.479
5.52787,-1.471
5.52793,-1.478
5.52800,-1.478
5.52807,-1.481
5.52813,-1.473
5.52820,-1.471
5.52827,-1.476
5.52833,-1.482
5.52840,-1.479
5.52847,-1.481
5.52853,-1.480
5.52860,-1.478
5.52867,-1.481
5.52873,-1.471
5.52880,-1.473
5.52887,-1.475
5.52893,-1.474
5.52900,-1.467
5.52907,-1.474
5.52913,-1.479
5.52920,-1.481
5.52927,-1.473
5.52933,-1.475
5.52940,-1.474
5.52947,-1.485
5.52953,-1.472
5.52960,-1.480
5.52967,-1.482
5.52973,-1.486
5.52980,-1.479
5.52987,-1.481
5.52993,-1.478
5.53000,-1.484
5.53007,-1.482
5.53013,-1.484
5.53020,-1.484
5.53027,-1.489
5.53033,-1.481
5.53040,-1.476
5.53047,-1.483
5.53053,-1.482
5.53060,-1.489
5.53067,-1.482
5.53073,-1.493
5.53080,-1.486
5.53087,-1.489
5.53093,-1.480
5.53100,-1.476
5.53107,-1.478
5.53113,-1.482
5.53120,-1.475
5.53127,-1.479
5.53133,-1.480
5.53140,-1.489
5.53147,-1.484
5.53153,-1.484
5.53160,-1.481
5.53167,-1.487
5.53173,-1.478
5.53180,-1.479
5.53187,-1.477
5.53193,-1.481
5.53200,-1.485
5.53207,-1.473
5.53213,-1.482
5.53220,-1.475
5.53227,-1.479
5.53233,-1.471
5.53240,-1.473
5.53247,-1.479
5.53253,-1.482
5.53260,-1.475
5.53267,-1.476
5.53273,-1.480
5.53280,-1.485
5.53287,-1.481
5.53293,-1.484
5.53300,-1.479
5.53307,-1.477
5.53313,-1.471
5.53320,-1.477
5.53327,-1.475
